  11100 12  1   LUAG5    PUC    BMW  .000 U S1 021093 00.01   1        
  PROGRAM LAMBDA-9   VERSION 02.31                                     
  USER BMW DATE & TIME  1993 02 10 17.03 46.69    9.9300    295K U     
 AU1 HO  50     0     0 LUAG             .300000 -  .600000 .00010     
 FILE NAME                                ON PC = LUAG5.SP             
 NO_POINTS  =  3001.    pts   DATA_INTV =  .000100 æm                  
 MIN_LAMBDA =   .300000 æm     MIN_DATA =    .09440                    
 MAX_LAMBDA =   .600000 æm     MAX_DATA =    .86070                    
 SCANSPEED  = 15.000000 NM/MIN SLITWIDTH=   .20000 NM                  
  RESP TIME =   .5      sec SENSITIVITY = 5          DATE=93/02/10     
 16:32:05    93/02/10                                                  
  LUAG5                                                                
  This spectra is part of Database LASERS
 Database LASERS was created by Pat Cross working 
 at NASA Langley Research Center, Internal Operations Group,
 Aerospace Electronics Systems Division, Remote Sensing 
 Technology Branch. phone:(757)864-1633   fax:(757)864-7894 
     e-mail p.l.cross@larc.nasa.gov 
     homepage http://aesd.larc.nasa.gov/laser/dbmain.htm
  EOH     (1X,F11.4)                                                   
  3001.         
   1041.9603    
   1062.1307    
    551.0080    
    696.8713    
    792.3712    
    765.8397    
    436.7575    
    353.1922    
   1286.3999    
    855.3521    
    796.9172    
    760.6123    
   1113.1317    
    903.4059    
    695.8467    
   1161.4333    
    909.3643    
    931.8564    
    792.3580    
    807.3792    
   1208.0370    
    635.1006    
   1276.2245    
    599.4353    
    733.3956    
   1164.8826    
    395.6916    
    298.0017    
   1073.9810    
    813.2601    
    363.5307    
    939.1247    
    741.0067    
    352.5921    
    859.0549    
    965.1229    
    274.8455    
    621.1670    
    359.0699    
    460.1245    
    381.2858    
    472.8233    
    482.7844    
    749.6033    
    149.3173    
    777.1182    
   1299.4056    
    956.8428    
    443.9262    
    101.3456    
    497.5020    
    611.3318    
    879.8262    
    549.1335    
    638.9858    
   1023.6677    
   1001.7664    
   1051.5363    
    926.0392    
    987.9515    
    916.8638    
    350.0089    
    692.6187    
    792.8660    
    415.6316    
    747.1568    
   1022.3510    
   1427.0094    
   1057.6290    
    670.6172    
    576.4703    
     44.9508    
    812.9194    
    715.6739    
    464.5054    
    641.0306    
    477.1743    
    350.4560    
    458.5939    
    727.3546    
   1145.8619    
    958.1574    
    772.1917    
   1248.9967    
    932.0532    
    545.1056    
    644.5783    
    766.4792    
    886.6641    
    681.9359    
    772.3162    
    887.6222    
      0.0004    
    979.2452    
   1031.3868    
    476.0566    
    879.4001    
    737.9830    
    787.0607    
    721.5772    
    782.8120    
    812.4332    
    923.0305    
    717.9724    
    820.7109    
   1316.0371    
    723.7813    
    309.8932    
    826.8568    
    967.0464    
    812.8150    
    818.0145    
    587.4460    
    505.7666    
   1104.5022    
    787.5095    
    473.0346    
    659.1990    
    642.5419    
    633.1622    
    823.2535    
    354.8089    
   1017.9253    
    873.1295    
    557.3600    
    664.0934    
    562.8007    
    749.7670    
    476.7342    
    510.7047    
    934.1757    
    714.4938    
    812.2739    
    724.8289    
    514.6376    
    842.5230    
    747.6438    
    599.9672    
    885.0645    
    848.6306    
    673.5176    
    927.6908    
    521.8756    
    548.6770    
    568.2731    
    568.5740    
    823.8429    
    685.3304    
    386.9194    
    639.8723    
    664.3997    
    471.6830    
    667.4222    
    909.1951    
    508.6281    
    770.4066    
    661.3416    
    625.3157    
   1043.6266    
    667.0793    
    650.4127    
    747.8325    
    993.0060    
   1101.9984    
    892.8351    
    736.8460    
    406.6164    
    387.7774    
    553.7020    
    655.4869    
    443.7161    
    566.6371    
    983.6287    
    802.5361    
    671.4890    
    869.1107    
    832.7142    
    943.2722    
    889.5784    
    858.0374    
    819.2180    
    799.9814    
    615.7137    
    967.1380    
    852.1457    
    806.0175    
    393.3042    
    704.3675    
    487.3301    
    661.2892    
    805.0147    
    866.3901    
    705.8021    
    723.0898    
    665.1425    
    830.8578    
    921.7308    
    668.4213    
    695.3779    
    562.6535    
    430.8029    
    837.4511    
    757.2628    
    696.7961    
    593.0159    
    425.0344    
    736.5029    
    739.2148    
   1058.0735    
    637.9210    
    742.4905    
    823.1747    
    307.6703    
    516.0479    
    746.0437    
    878.0758    
    656.8221    
    785.8286    
    756.8901    
    467.2950    
    611.9877    
    808.8837    
    889.8184    
    821.6375    
    487.8785    
    912.7019    
    781.0179    
    920.6107    
    844.9986    
    933.4294    
   1037.0419    
    794.5782    
    775.3644    
    654.2634    
    741.8541    
    800.5494    
    935.3499    
    837.6964    
    943.2595    
    992.6919    
   1148.6091    
    873.0065    
    914.9092    
    900.4780    
    676.6340    
   1063.3499    
    906.1902    
   1009.6356    
    855.3416    
    975.7257    
    794.8737    
    998.4036    
   1025.7655    
    981.7197    
    783.7708    
   1090.7539    
    762.4019    
    401.0626    
    933.9356    
    768.0705    
    697.9014    
    565.2551    
    802.9619    
    580.2440    
    655.3708    
    735.6319    
    799.1498    
    680.3741    
    704.8755    
    502.4489    
    478.7188    
    832.1736    
    701.0824    
    906.0463    
    508.5700    
    738.2720    
    663.3775    
    555.0374    
    758.5002    
    550.7471    
    662.0048    
    759.2846    
    825.2989    
    913.5650    
    774.6607    
    852.9300    
    845.8639    
   1010.3800    
    995.8755    
    792.9974    
    783.5179    
    609.2896    
    849.8583    
    633.9497    
    735.9294    
    566.9347    
    468.7140    
    719.7119    
    719.9686    
    834.5731    
   1109.9637    
    908.4147    
    984.7246    
   1145.3883    
   1685.5138    
   1916.1295    
   1220.6213    
    917.2925    
   1231.0800    
   1082.5986    
   1181.8865    
    901.1675    
    769.6840    
    796.7025    
   1012.3680    
   1173.2255    
   1428.1147    
   1734.6700    
   2108.2241    
   2343.7090    
   2246.9197    
   2291.6980    
   1810.0347    
   1492.7780    
   1599.1527    
   1415.3052    
   1604.7206    
   1338.1306    
   1739.9756    
   1845.0930    
   1261.5037    
   1477.1388    
   1951.2542    
   2106.7715    
   1761.8848    
   2055.3774    
   2198.6448    
   2146.7661    
   2139.2058    
   2090.0771    
   1560.0988    
   1361.6123    
   1611.2142    
   1619.0657    
   1920.7286    
   2452.9517    
   2522.0186    
   2775.7456    
   3536.6343    
   3531.3010    
   3177.8464    
   3832.3022    
   3307.4868    
   2624.7351    
   3069.5496    
   3099.7822    
   1988.0951    
    993.4872    
   1141.7159    
    900.8038    
   1077.9371    
   1489.5128    
   1429.3990    
   1530.3325    
   1197.6978    
    924.2758    
   1165.9349    
   1220.7695    
    866.3109    
    742.4102    
    930.3705    
    960.0234    
    943.0989    
    782.2274    
    794.6262    
    846.0171    
   1066.9667    
    807.5057    
    888.2339    
    718.1143    
    766.8770    
    913.3999    
    825.7373    
    935.9061    
    923.8967    
    958.4355    
    710.0745    
    751.5295    
    919.9423    
    776.2853    
    800.8369    
    879.0801    
    913.5381    
    656.0796    
    661.1456    
    678.2988    
    790.0759    
    763.5787    
   1022.8793    
    917.6163    
    759.4200    
   1011.2797    
   1026.2661    
    796.5637    
    692.4812    
    683.0372    
    931.4738    
    714.9626    
   1116.4108    
    710.5782    
    766.5841    
   1016.0447    
   1077.8335    
   1184.3870    
   1289.0117    
   1384.1622    
   1329.3824    
   1339.6000    
   1173.1367    
   1437.7258    
   1285.3979    
   1107.0341    
    878.9003    
    959.8614    
   1004.2624    
   1002.0333    
    874.9234    
   1160.3195    
   1374.6012    
   1502.8503    
   1571.1829    
   1642.2823    
   1528.7240    
   1448.4252    
   1453.6724    
   1229.0786    
   1286.5186    
   1073.6348    
   1349.3416    
   1232.4586    
   1309.8452    
   1437.6624    
   1402.7791    
   1350.4569    
   1762.1727    
   1844.1753    
   2284.5125    
   2086.7866    
   1686.6909    
   1369.2881    
   1108.5956    
   1257.4952    
   1560.9338    
   1310.2360    
   1156.4417    
   1223.5870    
   1607.3140    
   2120.1194    
   2193.1531    
   2156.9324    
   1929.5972    
   1477.2468    
   1153.2472    
   1307.4423    
   1347.5887    
   1475.6073    
   1589.2666    
   1642.6432    
   2328.6433    
   2946.6663    
   2895.5681    
   2702.5071    
   2050.8379    
   1447.1998    
   1057.1377    
   1188.2596    
    956.8821    
    908.1649    
    733.1977    
    687.4367    
   1083.0643    
   1152.4155    
   1259.2686    
   1014.8081    
   1267.1577    
   1163.1687    
   1235.2749    
   1619.0895    
   1897.1145    
   1423.0420    
   1428.2682    
   1095.2778    
   1358.6119    
   1209.4656    
   1130.4702    
    824.2286    
    761.2792    
    642.9917    
    691.4862    
    730.4060    
    913.0670    
   1038.2925    
   1011.4730    
   1320.9999    
   1251.5082    
   1446.4885    
   1414.1047    
   1167.8247    
    951.4350    
    846.6476    
    611.9948    
    996.1770    
    932.6959    
    832.8755    
    940.4509    
    989.6512    
    899.3165    
    882.4386    
    990.2740    
    890.1744    
    705.7563    
    776.2126    
    922.5452    
    893.4409    
    771.9785    
   1043.2914    
    987.0223    
   1036.3278    
    906.6782    
    909.3263    
    997.6545    
    992.9528    
   1143.3263    
    937.0313    
    866.4326    
    971.7097    
    915.6430    
    906.0765    
    957.6257    
   1038.7810    
   1026.6987    
   1105.6641    
   1232.0333    
   1729.6937    
   1587.9512    
   1507.4888    
   1210.5211    
   1425.0438    
   1440.2831    
   1700.4055    
   2049.0220    
   2142.4688    
   2265.0603    
   2328.0459    
   1739.5443    
   1673.6917    
   1862.4596    
   2037.5089    
   2224.5132    
   2766.2764    
   2868.4839    
   2734.5688    
   2392.8257    
   1797.4005    
   1951.2904    
   2015.8743    
   2062.5579    
   2174.2402    
   1959.7988    
   1949.7100    
   2071.1074    
   2143.8567    
   2450.0793    
   2529.4978    
   2887.4109    
   3408.7244    
   4319.1787    
   4651.7612    
   4423.9443    
   3595.5510    
   3590.1692    
   3349.1855    
   2741.3862    
   2373.3250    
   2816.7795    
   2803.5615    
   2916.7114    
   2903.4250    
   2914.4033    
   2766.8284    
   2966.0930    
   2882.6531    
   2762.0562    
   2668.8005    
   2528.3057    
   2380.9055    
   2454.7607    
   2547.4099    
   2830.2307    
   2553.0903    
   2500.3853    
   2311.2859    
   2540.4302    
   2909.2107    
   3530.7747    
   2955.4695    
   2618.0959    
   2325.5220    
   2179.6125    
   2415.1284    
   2512.8677    
   3045.9680    
   3215.1140    
   3778.6289    
   3745.0764    
   3518.9753    
   3229.5613    
   2836.5442    
   2952.5408    
   2673.7717    
   2907.0552    
   2993.6628    
   3102.3992    
   3121.6436    
   2784.2280    
   2741.6077    
   2019.9139    
   1919.7874    
   1909.7159    
   1853.5647    
   2000.0455    
   2189.1558    
   1925.8562    
   2137.5933    
   1951.9093    
   1875.1525    
   1888.1427    
   2349.5146    
   2302.5808    
   1768.6685    
   1824.9501    
   2157.2432    
   3261.8325    
   6333.8862    
   7684.6812    
   5431.7324    
   4913.3662    
   5116.9663    
   4662.3208    
   3145.5562    
   1885.6100    
   1839.7512    
   2669.2632    
   4828.5229    
   5494.5591    
   3721.8364    
   3548.8462    
   4781.8916    
   5306.2588    
   5510.7954    
   6241.4146    
   5146.6060    
   4088.2678    
   3458.5525    
   2370.2048    
   1998.7662    
   1788.9022    
   1503.1763    
   1591.4792    
   1825.1528    
   2015.1257    
   2048.8330    
   2126.5986    
   2348.2388    
   2718.5708    
   2330.2686    
   1844.2905    
   1895.6342    
   1651.3999    
   1352.6675    
   1154.3622    
   1142.2014    
    635.5993    
    831.6171    
    943.8658    
    924.5084    
    827.2925    
    737.7996    
   1121.2543    
    733.3183    
    803.7285    
    654.0511    
    828.3575    
    553.5189    
    481.9439    
    539.5018    
    676.6187    
    616.6188    
    590.3741    
    638.6130    
    593.1269    
    345.1756    
    692.1430    
    536.1206    
    509.9832    
    603.6088    
    955.0810    
    797.0190    
    541.7842    
    657.2156    
    652.5735    
    868.1611    
    710.7839    
    459.0283    
    883.2892    
    718.5508    
    543.1759    
    857.0407    
   1037.9825    
    755.5042    
    789.5816    
    933.2621    
    702.8619    
    477.4564    
    902.0712    
    616.6883    
    585.6460    
    487.6923    
    466.3871    
    590.9606    
    442.8947    
    743.0560    
    371.8987    
    731.3115    
    572.6266    
    623.2064    
    611.3625    
    479.8538    
    520.6328    
    382.5889    
    411.2774    
    504.4110    
    252.9032    
    466.5583    
    538.3957    
    687.4915    
    728.6877    
    488.7086    
    543.8575    
    721.9477    
    472.5106    
    458.3715    
    465.6927    
    399.2068    
    559.2349    
    442.3651    
    356.9778    
    745.0364    
    598.2676    
    603.2361    
    723.7917    
    505.3845    
    400.7116    
    517.6663    
    372.5474    
    717.3807    
     90.0947    
    346.9576    
    611.9360    
    595.2985    
    406.7939    
    672.5583    
    354.8963    
    258.0868    
    711.6292    
    830.3912    
    769.9596    
    668.7314    
   1021.1251    
    865.0625    
    611.5124    
    470.5042    
    904.4982    
    909.5345    
    880.4759    
    241.1901    
    416.5546    
    747.5740    
    543.3060    
    524.3359    
    345.9940    
    237.4524    
    503.3186    
    830.9053    
    770.4785    
    585.1641    
    657.3859    
    611.8787    
    595.2412    
    793.0787    
    785.9725    
    643.7607    
    764.5122    
    646.4877    
    815.6978    
    910.6623    
    811.1697    
    729.0618    
    896.5294    
    879.6528    
   1016.5107    
   1046.0846    
   1016.8301    
    841.4041    
    771.2717    
    737.5847    
    764.3326    
    844.4694    
    861.6340    
    883.6793    
    922.8039    
   1227.5399    
   1529.4130    
   1562.2567    
   1686.0967    
   1364.7545    
   1442.3066    
   1457.4775    
   1563.0455    
   2186.7493    
   2233.6794    
   2239.0413    
   1558.6428    
   1064.2882    
    788.9548    
    969.0943    
    986.3597    
    859.7668    
   1124.0709    
   1237.7947    
   1512.1509    
   2334.5024    
   2781.4023    
   2269.5605    
   1480.1730    
   1310.6560    
   1251.2654    
   1044.3903    
    993.1184    
    699.4860    
    808.4008    
    910.5962    
    842.6658    
    940.1552    
   1178.3185    
   1003.9844    
   1075.2242    
   1522.3118    
   2463.0112    
   3641.3362    
   2418.6453    
   1740.0127    
   2021.2915    
   2878.4128    
   2830.2852    
   1885.8093    
   1733.1647    
   2166.6938    
   1569.2377    
   1087.0372    
   1451.6185    
   2069.0415    
   2242.7671    
   1698.7427    
   1245.6506    
   1818.4265    
   1882.3676    
   1502.7758    
   1450.3297    
   1709.7827    
   1288.6953    
   1581.2740    
   1725.4425    
   1443.5804    
    981.4946    
   1175.6284    
   1131.4149    
   1153.7336    
   1668.1073    
   2237.5242    
   2276.7246    
   1347.4962    
   1487.4802    
   1678.9705    
   1169.5721    
   1182.0576    
   1533.2297    
   1859.9755    
   1603.9673    
   1106.2908    
    879.0760    
    779.7977    
    693.0477    
    712.4742    
    918.6011    
    717.5916    
    875.1010    
   1169.0330    
   1026.6493    
    982.7671    
    851.4006    
    793.3720    
    936.8362    
    905.3172    
    827.7275    
    791.5378    
    786.8435    
    714.5323    
    996.3062    
    857.5737    
    879.5849    
    889.4561    
    850.7281    
    775.7709    
    921.5315    
    882.7437    
    899.9130    
    742.5258    
   1022.2254    
   1066.4800    
    800.9820    
   1010.4233    
    969.0226    
   1059.6984    
   1008.4095    
    874.4678    
    847.9011    
   1111.8405    
    999.2031    
    974.9129    
   1092.6117    
    958.1136    
    814.8184    
    977.9286    
    907.3713    
    929.4299    
   1140.1927    
   1135.4114    
    973.7593    
    951.9383    
    913.0942    
    893.7730    
    874.4689    
    884.3316    
    952.6487    
    901.6374    
   1058.0817    
   1053.3209    
    894.7651    
    902.2032    
    895.0476    
    759.4598    
    769.2654    
    651.3340    
    692.3600    
    757.6085    
    844.8871    
    871.7271    
    969.2612    
    932.8247    
    649.9137    
    705.3833    
    836.0267    
    799.8303    
    766.1155    
    766.2549    
    735.0080    
    853.7031    
    718.4068    
    740.2515    
    880.8308    
    750.1835    
    932.1995    
    907.9929    
    847.3962    
    832.9844    
    959.5672    
    874.5105    
    751.1517    
    770.6107    
    778.0003    
    884.7802    
    863.0590    
    870.4800    
    735.0857    
    902.3478    
    805.4326    
    866.1732    
    851.7476    
    711.6631    
    798.7186    
    849.7327    
    779.6450    
    714.6188    
    729.2167    
    804.2409    
    860.1179    
    984.4088    
    923.5889    
    892.1008    
    948.2200    
    894.8032    
    834.2546    
    953.5024    
    786.1083    
    885.6221    
   1054.1168    
    801.0251    
    726.2913    
    908.0409    
    808.6904    
    680.9440    
    811.3787    
    989.0109    
    930.6172    
    806.9405    
    972.3245    
    965.1394    
    945.7681    
    997.1414    
    839.0954    
    749.7410    
   1007.3163    
    934.2532    
    946.5676    
   1044.4135    
   1000.5168    
    920.1779    
   1037.4668    
    888.8306    
    964.4289    
    864.8103    
    855.2384    
   1052.8201    
   1089.7306    
    935.8423    
    953.0292    
    906.9026    
   1151.7040    
   1016.8987    
   1053.7416    
    943.9399    
    992.8557    
    888.2441    
    973.5890    
    883.6465    
   1017.8158    
   1064.4590    
    971.6714    
    862.3205    
    843.0491    
    923.3307    
   1131.3912    
   1048.0919    
    904.2604    
   1109.6635    
   1006.8958    
   1068.2106    
    965.6536    
    917.0691    
    956.1597    
   1007.5425    
   1213.9948    
   1073.8881    
    978.6258    
   1030.0627    
    937.4437    
   1096.4813    
    996.2284    
    891.6141    
   1185.4199    
   1175.6893    
   1178.2805    
   1023.7516    
   1006.7684    
   1087.6906    
   1124.6490    
   1223.3262    
   1292.7274    
   1169.3190    
   1031.9819    
   1100.7239    
   1137.7057    
   1214.2125    
   1034.9368    
   1231.7548    
   1052.3241    
    979.1212    
   1047.6793    
   1232.2607    
   1084.6881    
   1153.6049    
   1089.8469    
   1104.6971    
   1240.3042    
   1161.4941    
   1267.7616    
   1223.3876    
   1070.9846    
   1337.5552    
   1236.1139    
   1320.4288    
   1323.0344    
   1492.6232    
   1437.7656    
   1412.9468    
   1197.3672    
   1160.5333    
   1400.8618    
   1430.9028    
   1416.0625    
   1551.2609    
   1501.2526    
   1652.1515    
   1674.9901    
   1431.6471    
   1359.5494    
   1557.0251    
   1582.2681    
   1422.1643    
   1454.7302    
   1509.8768    
   1499.9844    
   1590.4260    
   1482.7156    
   1588.1571    
   1869.3036    
   2370.2019    
   3850.4707    
   3696.4714    
   2554.3635    
   2339.3530    
   3075.6287    
   3848.2708    
   5158.5767    
   5282.1440    
   4189.0068    
   4232.0825    
   4347.1973    
   4617.2432    
   5431.2827    
   5846.3789    
   4787.7974    
   2810.7637    
   2110.0063    
   1935.4564    
   1853.9005    
   2177.5579    
   2784.6738    
   4841.7549    
   5154.5146    
   3755.0498    
   3002.4045    
   3839.4456    
   4993.6040    
   5065.2935    
   5014.6924    
   5573.7734    
   5494.3926    
   4637.1929    
   3431.2458    
   3310.5298    
   3846.1455    
   5765.3438    
   6228.4951    
   6786.9619    
   9668.0234    
  10363.2539    
   6816.6255    
   4013.5632    
   3501.4175    
   4359.8096    
   8206.4512    
  16014.8965    
  19250.5137    
  13548.7695    
   7385.9863    
   4963.6235    
   5423.6626    
   7857.7134    
  16077.5518    
  23469.6816    
  14019.2959    
   6230.7432    
   3403.8118    
   2311.9214    
   1891.8027    
   1731.8170    
   1578.1179    
   1716.8699    
   1826.0422    
   1851.6052    
   1953.8313    
   2216.6943    
   2886.3933    
   4310.7783    
   7699.0801    
  13208.3604    
  12884.4385    
   9047.2383    
   7990.9775    
   7398.9678    
   4653.9551    
   2756.5222    
   1916.8729    
   1860.8711    
   1708.7299    
   1843.2792    
   1848.4860    
   2040.4335    
   2146.1938    
   1968.8326    
   1669.0118    
   1707.0073    
   1581.1304    
   1381.2828    
   1521.1628    
   1558.8799    
   1672.2233    
   1720.3379    
   1796.4756    
   1941.8285    
   2199.3057    
   2279.8743    
   2583.9302    
   2473.4661    
   2463.0801    
   2523.6409    
   2642.5503    
   2772.8196    
   2687.8379    
   2332.8616    
   2432.2939    
   2244.6353    
   2200.6680    
   2071.6882    
   2105.2852    
   2445.9644    
   3259.3157    
   3770.8948    
   3539.9312    
   2742.2212    
   2588.6064    
   2793.0620    
   3164.6711    
   2962.0337    
   2633.9917    
   2298.1946    
   2163.4268    
   2353.1455    
   2259.5295    
   2104.3901    
   1779.7853    
   1640.8790    
   1548.0063    
   1767.4412    
   1859.0101    
   2208.4250    
   2416.8755    
   2330.7852    
   2128.6030    
   2603.9312    
   3202.0276    
   3147.7773    
   2464.7148    
   1763.4813    
   1434.3306    
   1409.5266    
   1675.3124    
   1832.4586    
   1584.9093    
   1367.6830    
   1182.2974    
   1179.9449    
   1254.0396    
   1035.4491    
   1064.9086    
   1089.5082    
    960.1563    
   1040.7762    
    809.9774    
   1094.8478    
   1099.8591    
   1109.7776    
   1117.2463    
   1181.2562    
   1146.9319    
   1243.1083    
   1000.2401    
   1071.2205    
   1236.0280    
   1081.2324    
   1069.0985    
   1083.8988    
   1088.9061    
   1096.3674    
    891.6246    
   1015.8574    
   1116.3085    
   1060.0649    
   1057.7256    
   1153.4681    
   1011.5126    
   1040.9308    
   1272.1226    
   1026.4854    
   1297.0768    
   1024.2567    
   1208.3680    
   1122.3973    
   1164.2671    
   1044.2318    
   1166.9403    
   1090.9449    
   1122.9307    
   1098.5111    
   1130.5070    
   1123.2498    
   1199.5773    
   1123.4620    
   1074.5446    
   1106.5027    
   1096.8026    
   1180.4091    
   1094.5631    
   1106.9258    
    979.9269    
   1063.0486    
   1099.8877    
    948.5927    
   1056.0261    
   1176.3319    
   1205.9843    
   1139.6693    
   1012.4705    
    811.0301    
   1093.3751    
   1037.2039    
   1265.8365    
   1167.3313    
   1088.8943    
   1111.0569    
   1071.9630    
   1177.5883    
   1030.6062    
   1187.6409    
    957.6713    
   1121.4938    
   1276.7667    
   1217.6183    
   1190.6226    
   1222.7561    
   1222.8596    
   1205.7097    
   1146.7708    
   1208.3809    
   1322.1494    
   1342.0865    
   1322.3557    
   1277.9045    
   1329.9968    
   1174.5327    
   1241.1597    
   1209.2051    
   1417.3563    
   1236.5331    
   1350.4545    
   1465.0227    
   1273.8835    
   1355.7242    
   1403.0392    
   1410.6058    
   1425.6451    
   1418.2771    
   1485.7119    
   1420.9712    
   1465.9415    
   1563.6025    
   1603.8663    
   1441.3075    
   1689.6786    
   1717.5557    
   1705.0280    
   1652.1685    
   1629.6161    
   1549.3743    
   1634.8497    
   1537.0510    
   1637.5685    
   1592.4200    
   1579.9690    
   1615.2343    
   1728.7764    
   1640.5894    
   1756.8053    
   1673.5371    
   1696.3408    
   1565.6217    
   1563.2140    
   1633.6418    
   1701.7893    
   1861.5691    
   1757.6066    
   1760.2385    
   1846.6053    
   1732.6066    
   1887.5303    
   1803.7245    
   1786.0709    
   1647.2223    
   1771.0656    
   1819.3510    
   1745.9473    
   1677.8539    
   1517.2263    
   1817.2094    
   1743.8147    
   1896.2662    
   1774.3899    
   1711.2516    
   1863.4551    
   1731.6633    
   1769.7186    
   1764.7511    
   1729.4302    
   1732.0568    
   1734.6836    
   1831.0890    
   1884.6079    
   1976.6157    
   2076.7581    
   1897.6425    
   2028.1530    
   2015.4272    
   2051.4495    
   1997.6841    
   2033.6742    
   2203.8481    
   2203.9456    
   2451.3972    
   2606.6592    
   3291.4790    
   4262.3794    
   5789.2871    
   6535.8423    
   6167.1270    
   6503.9727    
   7910.3657    
   7000.3799    
   4502.3706    
   3194.2607    
   2692.3835    
   2820.1406    
   2692.5762    
   2892.4985    
   2959.6465    
   2724.7046    
   2756.6892    
   2925.0403    
   3127.2888    
   3189.7876    
   3378.2573    
   4084.5398    
   5575.9316    
   8843.5605    
  13552.2988    
  16625.3477    
  13529.7754    
  10563.1035    
   9968.6162    
  12190.7861    
  17524.4980    
  19808.4707    
  14602.6729    
   9395.2559    
   6580.5688    
   5315.7915    
   4853.1978    
   5066.8975    
   6475.1191    
  10038.2578    
  14275.6953    
  13189.0537    
  10373.4297    
   8856.2559    
   6678.2070    
   4593.1006    
   3917.1829    
   3559.8992    
   3559.9932    
   3629.3906    
   3726.9114    
   3867.0112    
   4050.5764    
   4896.1543    
   6108.9722    
   6627.6104    
   5741.9307    
   5006.2407    
   5915.5620    
   8240.9277    
   9272.4658    
   7283.2183    
   4985.9038    
   3750.4602    
   3245.7261    
   3175.1101    
   3264.9910    
   3812.3818    
   4114.5449    
   4352.1152    
   4383.8916    
   4226.0596    
   3576.0693    
   3328.4558    
   3194.9563    
   2968.0745    
   3197.8569    
   3347.9812    
   3749.0540    
   4451.1318    
   6190.0498    
   9314.8682    
  16467.2090    
  32971.6484    
  44700.9961    
  27586.9668    
  16352.3643    
  13104.2441    
  10273.1680    
   8229.7334    
   9110.5420    
  12813.4092    
  14622.6211    
  11478.9824    
   7352.9458    
   4832.1274    
   3857.1155    
   3470.6438    
   3921.9829    
   5264.4282    
   5616.8667    
   5376.3281    
   5276.7476    
   4933.3052    
   4841.7856    
   5144.8867    
   5857.8447    
   7677.3540    
   9487.4131    
   9361.6455    
   9232.9902    
  10688.7744    
  12062.9697    
  11509.5068    
  10364.5283    
   7769.9253    
   5599.9307    
   4934.5640    
   5182.0044    
   5095.3242    
   4705.1182    
   4591.3257    
   4955.7544    
   5152.4883    
   4547.9629    
   4256.7129    
   4340.0234    
   4354.4961    
   3700.5713    
   2972.9558    
   2616.1799    
   2595.1616    
   2571.5325    
   2411.5940    
   2195.9629    
   2152.1516    
   2167.7227    
   2289.5093    
   2490.5789    
   2815.9329    
   2979.3018    
   2864.1526    
   2409.7744    
   2029.4175    
   1820.3660    
   1741.9515    
   1621.0865    
   1613.6390    
   1593.6455    
   1463.6932    
   1571.2544    
   1478.8309    
   1543.8815    
   1571.5164    
   1466.6233    
   1504.1405    
   1566.7656    
   1539.3119    
   1579.4712    
   1557.0073    
   1562.1040    
   1547.1666    
   1457.3492    
   1482.3702    
   1539.9196    
   1485.0374    
   1627.8528    
   1630.4526    
   1852.9269    
   2036.8107    
   2292.3879    
   2464.6208    
   2556.5969    
   2433.3838    
   2475.3599    
   2475.4460    
   2704.8423    
   3063.3091    
   3483.2979    
   3546.8552    
   3535.8879    
   3288.8755    
   2335.0168    
   2285.7144    
   2801.1841    
   3231.9949    
   3806.1565    
   3566.8960    
   3366.0234    
   3256.8394    
   3167.2212    
   2807.1091    
   2325.4619    
   2393.2903    
   2786.0618    
   3043.2686    
   3211.1738    
   3135.2959    
   2388.4954    
   1746.6030    
   1480.5466    
   1558.1008    
   1663.6235    
   1545.7551    
   1483.3790    
   1461.0240    
   1546.0079    
   1638.8909    
   1591.2679    
   1337.1559    
   1344.6703    
   1536.4211    
   1742.6425    
   1654.4828    
   1494.1998    
   1464.3557    
   1437.0450    
   1727.9063    
   2025.5883    
   2125.8564    
   2146.5527    
   2113.1519    
   1877.8441    
   1440.1180    
   1435.2230    
   1512.5951    
   1690.8179    
   1814.7675    
   1970.1245    
   1711.2383    
   1465.6041    
   1299.4064    
   1578.2274    
   1704.0029    
   1790.0063    
   2137.4878    
   2998.2361    
   4897.5342    
   4779.7637    
   2446.7864    
   1646.6632    
   1664.3545    
   2728.9504    
   4721.5049    
   4430.7798    
   3688.2788    
   2822.3591    
   1763.2368    
   1342.8657    
   1219.4889    
   1207.2657    
   1452.3844    
   2172.4070    
   3385.1421    
   3161.7053    
   1908.5614    
   1365.8208    
   1485.2717    
   1837.6091    
   1988.0071    
   1620.6569    
   1568.0754    
   1993.3650    
   3059.6890    
   3927.7529    
   4438.2661    
   4125.9878    
   3306.9451    
   2725.7625    
   2768.3281    
   3587.6140    
   4758.9634    
   4941.7969    
   3996.1716    
   3375.8811    
   3400.6316    
   2840.7913    
   1956.2422    
   1429.6809    
   1444.6906    
   1552.0830    
   1852.1597    
   2146.4607    
   1956.7225    
   1758.6433    
   1587.5452    
   1688.1418    
   1954.4900    
   2128.9072    
   2663.8850    
   3197.1582    
   4093.8975    
   4287.9434    
   3770.2166    
   3812.2422    
   4420.4629    
   5062.5049    
   5053.6489    
   4914.2822    
   4559.7422    
   3620.4851    
   2821.4514    
   2593.6467    
   2591.0906    
   2415.4253    
   1823.6094    
   1461.7738    
   1369.9009    
   1308.0873    
   1231.6831    
   1288.4801    
   1224.4541    
   1212.2277    
   1281.3070    
   1412.6470    
   1547.3480    
   1766.2280    
   1933.8954    
   2366.9629    
   2692.7085    
   3061.5217    
   3401.5298    
   3341.3625    
   2999.8296    
   2598.0059    
   2232.4910    
   2093.3091    
   1972.9580    
   1868.5651    
   1570.9625    
   1566.0330    
   1626.2847    
   1491.2207    
   1461.3889    
   1376.9662    
   1396.8944    
   1489.0353    
   1340.0302    
   1263.5118    
   1280.8593    
   1266.1311    
   1194.8077    
   1335.4652    
   1009.0370    
    979.9129    
   1136.2164    
   1224.7064    
   1232.1681    
   1293.8944    
   1247.1010    
   1166.0278    
    944.0076    
   1060.9288    
   1041.4836    
   1132.0049    
   1129.6310    
   1220.5491    
   1124.8853    
   1245.3231    
   1228.1605    
   1441.0563    
   1817.7976    
   2258.6353    
   3292.6272    
   3722.7178    
   2992.3030    
   2906.5811    
   3983.7366    
   3784.4075    
   2527.8035    
   2295.5444    
   2596.3347    
   3468.6140    
   3559.6821    
   4274.2305    
   5122.2896    
   4151.6309    
   3182.1736    
   3092.9448    
   2159.1287    
   1685.3365    
   1537.3977    
   1328.6022    
   1368.2946    
   1318.8593    
   1190.7719    
   1100.1499    
   1146.7469    
   1274.7020    
   1400.9910    
   1686.0839    
   1769.4224    
   1995.7878    
   2383.1011    
   2687.8308    
   3822.7939    
   4786.2407    
   5331.0610    
   5124.0063    
   4379.4434    
   4218.9854    
   4495.0459    
   4730.9634    
   5776.9326    
   6336.9048    
   4875.2065    
   3103.1299    
   3328.6699    
   5100.8667    
   5437.8350    
   5617.6709    
   8558.4053    
   9672.4502    
   8340.1641    
   5657.7910    
   3807.4771    
   3707.0979    
   2774.3870    
   1450.3551    
   1075.7024    
    941.8827    
    932.2526    
    908.0888    
    910.5845    
   1095.6158    
   1287.2996    
   1625.8840    
   1701.4012    
   1573.3866    
   2445.7876    
   4344.3359    
   6351.5723    
   5766.7188    
   4689.3477    
   6990.2158    
  10628.3828    
   9704.1650    
   5409.5649    
   2992.3267    
   2462.2034    
   2316.2886    
   1541.8068    
   1101.8110    
    800.9026    
    779.3041    
    719.3003    
    688.2040    
    676.3000    
    642.8795    
    621.4489    
    623.9089    
    609.6577    
    683.8425    
    478.9756    
    576.4909    
    684.0569    
    657.7986    
    720.1596    
    818.8486    
    937.4188    
   1076.2175    
   1297.2968    
   1513.3395    
   1413.8256    
   1408.9293    
   1181.8632    
   1272.9757    
   1518.6859    
   1250.9337    
   1162.5157    
   1162.5864    
   1285.6633    
   1278.3326    
   1461.7756    
   1439.4542    
   1295.8190    
   1089.5663    
   1035.9468    
   1077.4918    
   1089.7776    
   1065.4246    
    941.4013    
    960.8857    
    786.8879    
    801.4073    
    987.8229    
    927.2018    
    927.2718    
    857.1682    
    876.5721    
    758.5132    
    710.5646    
    660.3391    
    619.7855    
    617.4677    
    577.0005    
    567.5437    
    627.2267    
    639.2407    
    558.2303    
    560.6802    
    553.6105    
    680.1802    
    658.7114    
    728.2615    
    689.9677    
    733.2012    
    834.3481    
    931.1563    
    892.4733    
    812.8536    
    707.1571    
    825.0446    
   1043.3278    
   1146.0443    
   1043.4655    
    965.6758    
    839.8636    
    782.0964    
    753.3107    
    738.9661    
    703.0491    
    794.4064    
   1005.0480    
    864.4899    
    794.6116    
    756.1917    
    619.7430    
    603.1097    
    562.6747    
    557.9822    
    684.5670    
    675.0588    
    565.3276    
    548.7380    
    532.1635    
    522.7288    
    425.6394    
    449.3604    
    428.1395    
    397.4946    
    423.5461    
    444.8989    
    411.8672    
    371.8145    
    433.2734    
    447.5342    
    419.2249    
    414.5658    
    483.2648    
    431.2452    
    377.0026    
    374.7114    
    414.9020    
    398.4379    
    398.5049    
    474.2544    
    398.6389    
    401.0671    
    351.6158    
    344.6188    
    427.2546    
    363.5945    
    373.0896    
    380.2315    
    463.0124    
    399.2399    
    335.6705    
    404.0956    
    389.9990    
    397.1464    
    394.8522    
    371.3318    
    385.5466    
    371.4644    
    392.7570    
    352.7467    
    371.6630    
    376.4437    
    393.0215    
    416.6992    
    430.9466    
    376.7077    
    459.4684    
    414.6015    
    454.8661    
    393.4829    
    367.6073    
    365.3160    
    403.1216    
    384.3084    
    365.5128    
    403.3183    
    443.5591    
    370.4236    
    335.1641    
    415.3886    
    377.6919    
    380.1156    
    413.2220    
    401.4799    
    394.4647    
    389.8113    
    422.9330    
    427.7243    
    392.3649    
    439.6767    
    425.5566    
    430.3483    
    399.7055    
    435.2058    
    364.4605    
    456.6279    
    437.7650    
    395.3082    
    416.6230    
    435.5938    
    327.1833    
    336.6574    
    379.1190    
    386.2581    
    367.4613    
    417.0742    
    417.1384    
    417.2027    
    358.2958    
    393.7208    
    372.5610    
    351.4221    
    436.4295    
    368.0388    
    377.5311    
    372.8810    
    450.8784    
    288.3332    
    377.7866    
    417.9706    
    420.3958    
    356.7713    
    432.3400    
    363.9649    
    309.9139    
    366.4485    
    378.2957    
    404.3096    
    397.2926    
    352.5690    
    404.4998    
    402.2036    
    475.5708    
    369.3108    
    444.9247    
    418.9857    
    341.2430    
    338.9527    
    310.8000    
    405.0681    
    405.1311    
    386.3188    
    402.8974    
    443.1261    
    348.8071    
    374.7809    
    384.2741    
    393.7718    
    443.4397    
    419.8657    
    429.3799    
    346.8914    
    394.0847    
    434.2941    
    417.8156    
    420.2406    
    399.0527    
    394.3966    
    427.5154    
    328.5688    
    295.7364    
    411.1669    
    356.9941    
    347.6389    
    394.8317    
    418.4998    
    366.6639    
    329.0653    
    454.1474    
    411.6628    
    341.0126    
    449.6002    
    494.6596    
    428.4449    
    404.8894    
    336.6164    
    383.7798    
    452.3362    
    419.3024    
    405.1971    
    471.4572    
    398.2390    
    476.3161    
    419.6094    
    377.1990    
    407.9247    
    471.8250    
    462.4157    
    429.3659    
    481.4834    
    505.2506    
    427.1858    
    441.4284    
    526.7925    
    420.2815    
    439.2478    
    401.5156    
    429.9146    
    394.5592    
    430.0361    
    479.7836    
    420.7069    
    408.9604    
    385.4286    
    418.5264    
    444.5830    
    402.1220    
    456.5320    
    458.9577    
    489.8065    
    508.8368    
    402.4239    
    478.1399    
    513.7621    
    404.9649    
    459.3795    
    563.8345    
    445.3064    
    533.0550    
    440.6980    
    447.8517    
    509.4980    
    495.3281    
    433.8464    
    457.5539    
    552.4845    
    521.6614    
    479.0394    
    490.9466    
    469.6861    
    420.0880    
    484.0167    
    476.9699    
    446.2627    
    436.8651    
    479.5159    
    484.3140    
    546.0671    
    404.0382    
    470.2805    
    522.4941    
    432.5541    
    501.2611    
    498.9488    
    437.4578    
    529.9120    
    522.8489    
    477.8587    
    549.0948    
    587.2191    
    539.7075    
    630.2458    
    575.4922    
    513.7684    
    568.4716    
    506.7696    
    518.6912    
    540.1188    
    461.9321    
    571.1444    
    454.9513    
    549.8582    
    628.5044    
    599.9496    
    564.2990    
    576.2538    
    564.4156    
    545.4562    
    612.1589    
    686.2601    
    607.5069    
    633.8013    
    574.2813    
    633.9175    
    610.1234    
    657.9154    
    705.8193    
    569.8134    
    596.0579    
    615.1823    
    615.2401    
    651.0944    
    698.9825    
    761.3892    
    663.2150    
    577.4139    
    727.9661    
    694.4821    
    694.5397    
    730.5357    
    670.7318    
    642.1198    
    728.3113    
    718.7798    
    738.0180    
    694.9418    
    766.9403    
    781.4161    
    819.9753    
    769.5149    
    774.3772    
    712.0496    
    822.6131    
    755.3320    
    887.8726    
    786.6825    
    866.2485    
    762.7650    
    774.8333    
    813.3784    
    777.3507    
    830.3533    
    881.0790    
    803.9765    
    832.9338    
    886.0808    
    816.1838    
    842.7451    
   1002.5753    
   1075.6776    
    821.2260    
    770.7648    
    785.2415    
    934.9205    
    903.5128    
    947.1486    
    889.1189    
    802.3604    
    833.7241    
   1005.6263    
    896.5950    
   1005.7386    
    925.7397    
    996.1300    
   1025.3623    
   1020.5519    
   1088.8326    
    989.0668    
   1074.3058    
   1057.2963    
   1130.5927    
   1140.4341    
   1228.7725    
   1307.6304    
   1307.6860    
   1288.0123    
   1275.7465    
   1202.0354    
   1084.6215    
   1162.9133    
   1199.7473    
   1320.4148    
   1263.7671    
   1195.0052    
   1222.0675    
   1273.7820    
   1254.1431    
   1116.8665    
   1234.5771    
   1301.1158    
   1357.9799    
   1355.5614    
   1529.4830    
   1532.0332    
   1420.1306    
   1612.1372    
   1818.6389    
   2238.0461    
   3163.3752    
   4528.8745    
   5507.7031    
   4683.0098    
   3692.6047    
   3687.1064    
   3851.6458    
   4150.6348    
   4454.1260    
   4709.6118    
   4762.3149    
   5426.3022    
   7088.2500    
  11478.5342    
  21091.8066    
  29597.1758    
  20823.5820    
  12360.3096    
   8245.4121    
   7187.4893    
   8214.2100    
  10047.1885    
  10815.5723    
  12553.7432    
  12722.6680    
   9428.7871    
   5661.5479    
   4174.4629    
   3838.8494    
   3716.1956    
   3878.1602    
   5156.7935    
   9045.1670    
  16827.7656    
  22597.1582    
  16255.0049    
   9540.4512    
   6436.2896    
   5352.2329    
   5157.2241    
   5732.8599    
   7139.1875    
  10777.1338    
  17199.5508    
  25543.3340    
  33138.6992    
  29073.0996    
  28560.7793    
  32513.6426    
  26331.2441    
  19474.0078    
  15668.6191    
  12732.8701    
  12162.5137    
  10789.6230    
   8243.9199    
   7905.6924    
  10663.7754    
  12646.3740    
   9946.6885    
   6862.0273    
   5377.5996    
   3871.4629    
   3329.7473    
   3765.3875    
   5326.5508    
   7048.4585    
   6527.1904    
   5152.7944    
   4457.4014    
   4883.0244    
   6009.8862    
   6454.0703    
   5432.6523    
   5805.4702    
   8085.4854    
  13787.8545    
  21888.0176    
  19855.9805    
  12591.2529    
   9959.1631    
   8106.5313    
   5120.7153    
   4146.1777    
   4969.3721    
   6627.4727    
   9131.5234    
  10288.1504    
   7903.9541    
   4311.8862    
   2910.1401    
   2623.7849    
   3057.6807    
   5692.6831    
   7320.7241    
   5476.2305    
   4872.6064    
   6753.7676    
   7877.1152    
   8274.0977    
   7447.7710    
   6899.9590    
   7849.9985    
   6789.6660    
   4560.4331    
   3012.6689    
   1852.2498    
   1498.1260    
   1277.7850    
   1295.0836    
   1233.6060    
   1094.0697    
    940.9563    
    970.0927    
   1082.0250    
    895.1455    
   1050.4467    
   1143.2457    
   1084.6699    
   1224.2411    
   1177.6777    
   1394.5399    
   1548.7563    
   1901.3279    
   2439.3965    
   3360.2627    
   3743.5442    
   4097.3970    
   4213.9282    
   4055.0535    
   3327.7737    
   2718.2178    
   2531.3262    
   2283.9248    
   2209.0396    
   2416.4912    
   2320.3533    
   2367.1409    
   2479.2817    
   2333.4775    
   2346.5073    
   2139.8770    
   2134.7869    
   2124.5613    
   2279.3064    
   2484.8655    
   2560.8838    
   2907.7229    
   3512.1973    
   4044.7627    
   4067.4263    
   3561.9365    
   3090.3687    
   2900.0164    
   3405.4761    
   3879.0620    
   4087.5381    
   3592.6021    
   2621.9441    
   2063.8208    
   1718.6177    
   1665.8804    
   1473.5502    
   1545.8394    
   1503.5114    
   1618.4386    
   1711.3683    
   1809.7838    
   1787.0905    
   1516.2148    
   1283.3894    
   1172.9031    
   1224.4611    
   1402.1177    
   1310.7012    
   1419.5681    
   1330.5420    
   1576.5051    
   1601.5618    
   1656.7374    
   1840.7922    
   2041.8843    
   2064.9661    
   1646.9011    
   1589.3506    
   1264.4391    
   1171.1967    
   1068.6356    
   1328.6665    
   1240.0430    
   1144.4689    
   1168.9949    
   1149.4608    
   1054.3154    
    981.4423    
   1042.2411    
    882.3051    
   1035.0399    
   1022.9281    
    793.3176    
    781.3509    
    764.5908    
    860.8818    
    817.5649    
    865.8031    
    902.0705    
    767.2360    
    652.3841    
    733.7534    
    810.6394    
    827.5353    
    767.4796    
   1004.1703    
   1028.5243    
   1106.5443    
    960.6435    
    849.5079    
    878.5020    
    864.0732    
   1006.9396    
   1006.9880    
   1298.2130    
   1364.9175    
   1065.5209    
   1099.7063    
    919.9657    
    833.1264    
    785.0659    
    586.6790    
    823.6398    
    763.5979    
    990.5214    
    869.5733    
    946.9751    
    723.0316    
    684.7941    
    771.0875    
    668.1613    
    708.8581    
    809.6827    
   1007.9510    
    913.4801    
    838.7131    
    976.5394    
   1088.4680    
   1291.9744    
   1213.3368    
   1042.3237    
    865.5153    
    841.4553    
    841.5029    
    757.4046    
    535.5568    
    623.5932    
    502.4591    
    516.7250    
    476.5122    
    652.4017    
    547.7102    
    652.4965    
    631.0762    
    597.7737    
    631.1708    
    605.0098    
    707.7017    
    729.2997    
    517.2457    
    552.8842    
    562.4331    
    579.1188    
    703.1995    
    557.8237    
    617.3433    
    404.1057    
    641.2754    
    584.1567    
    612.7662    
    603.2878    
    593.8138    
    562.9501    
    451.6353    
    553.5420    
    449.3658    
    501.4566    
    670.3862    
    641.7906    
    584.6717    
    732.7271    
    546.7460    
    608.6116    
    615.8031    
    535.0187    
    435.6622    
    509.0300    
    587.4233    
    596.9872    
    459.4708    
    556.6629    
    518.7426    
    544.8830    
    549.6781    
    540.2294    
    497.6041    
    457.4326    
    526.1333    
    495.3744    
    688.1367    
    669.0667    
    486.0434    
    628.5967    
    547.7654    
    576.3201    
    505.1708    
    550.2781    
    597.8650    
    650.3369    
    628.9186    
    688.6429    
    425.0614    
    548.1790    
    552.9727    
    538.7767    
    598.2319    
    550.7366    
    591.1852    
    669.8930    
    527.1439    
    489.2823    
    574.7214    
    435.0049    
    551.0562    
    686.8920    
    567.7739    
    439.9096    
    508.5465    
    520.4408    
    615.5361    
    608.4374    
    577.5539    
    584.7324    
    641.9351    
    649.1363    
    506.5398    
    518.4340    
    480.5884    
    644.5468    
    480.6787    
    542.3320    
    485.5008    
    628.0377    
    675.8039    
    616.2144    
    666.3404    
    525.9972    
    575.8989    
    609.2502    
    633.1191    
    502.4792    
    519.1097    
    542.8718    
    666.6997    
    595.2389    
    578.6354    
    583.4348    
    683.6002    
    638.2914    
    650.2607    
    609.7878    
    417.8885    
    564.6881    
    595.6411    
    451.0673    
    633.8346    
    593.3951    
    507.9755    
    572.0833    
    527.0255    
    655.5236    
    619.8039    
    508.1976    
    607.9849    
    524.8759    
    612.8363    
    584.3248    
    624.8339    
    620.1140    
    544.0737    
    644.0375    
    577.4135    
    589.3457    
    656.0988    
    703.9263    
    615.6583    
    492.2403    
    651.5020    
    649.1613    
    670.6857    
    704.1903    
    563.5967    
    623.1132    
    637.4562    
    608.9105    
    656.6262    
    668.6045    
    632.8630    
    578.1605    
    654.4146    
    654.4583    
    459.7870    
    640.2346    
    776.6492    
    526.1943    
    576.0887    
    616.5780    
    460.0486    
    623.8123    
    666.7850    
    764.9540    
    621.5599    
    578.7704    
    519.4744    
    583.6113    
    567.0181    
    548.0660    
    648.0408    
    683.8948    
    569.5674    
    519.7775    
    548.2823    
    700.8009    
    645.9146    
    598.3156    
    460.8282    
    700.9734    
    648.4725    
    643.7448    
    710.6709    
    558.1649    
    600.9953    
    596.2802    
    682.1514    
    684.5840    
    780.4327    
    570.2993    
    622.6812    
    613.1976    
    513.4857    
    584.7308    
    701.6170    
    563.4295    
    639.6196    
    670.6791    
    625.4058    
    752.1138    
    778.5458    
    673.2379    
    678.0565    
    742.6965    
    678.1415    
    599.5140    
    488.0374    
    621.0236    
    628.2126    
    528.4297    
    545.0753    
    614.0491    
    661.7675    
    476.5061    
    559.4865    
    626.1274    
    573.8243    
    516.9164    
    516.9587    
    583.4583    
    678.8188    
    564.5323    
    495.8135    
    626.4648    
    543.2932    
    557.5768    
    581.3752    
    602.8217    
    550.5814    
    657.7116    
    758.2190    
    736.6910    
    698.4413    
    650.7224    
    667.4678    
    734.4627    
    775.2632    
    732.1508    
    610.4234    
    505.9964    
    646.2441    
    662.9854    
    717.9957    
    613.0114    
    596.3949    
    529.9413    
    687.0753    
    617.9406    
    663.2766    
    577.5812    
    653.8165    
    639.5490    
    661.0570    
    622.9520    
    482.9526    
    582.5842    
    620.6940    
    635.0308    
    613.6334    
    709.1300    
    697.2155    
    716.3896    
    726.0049    
    585.2921    
    549.7041    
    668.7540    
    568.7809    
    738.1850    
    649.7883    
    509.6068    
    630.7994    
    616.5497    
    750.3702    
    664.3077    
    538.2519    
    645.3066    
    578.6937    
    671.6339    
    547.9050    
    659.7811    
    562.2285    
    686.1270    
    698.1179    
    612.2796    
    612.3203    
    700.6298    
    650.5242    
    583.8968    
    569.6805    
    527.0093    
    576.8890    
    562.6763    
    550.8484    
    674.6720    
    465.6765    
    615.1467    
    608.0465    
    603.3284    
    698.7676    
    662.9803    
    560.6673    
    660.6745    
    629.7201    
    544.1754    
    804.4717    
    615.5507    
    718.2234    
    708.6942    
    615.6714    
    768.6575    
    637.1906    
    596.7548    
    677.8268    
    561.1906    
    831.3262    
    485.4370    
    656.5068    
    608.8919    
    573.2650    
    589.9415    
    566.2194    
    673.4123    
    587.6849    
    604.3732    
    752.4731    
    642.5574    
    771.7373    
    685.5919    
    666.5291    
    630.8019    
    597.5142    
    576.1596    
    576.1993    
    676.2769    
    736.0998    
    607.2291    
    666.8468    
    488.6782    
    686.0287    
    597.8712    
    583.6454    
    616.9875    
    801.1833    
    719.6990    
    593.3130    
    581.4659    
    564.8766    
    602.9455    
    727.0759    
    610.1624    
    584.0399    
    576.9504    
    636.4763    
    581.7808    
    693.8275    
    710.6020    
    646.1678    
    665.2892    
    603.3778    
    539.2842    
    577.3035    
    442.3666    
    617.8132    
    694.1801    
    710.9544    
    563.2488    
    582.2899    
    608.4877    
    682.4308    
    646.6760    
    732.7265    
    615.7848    
    639.6420    
    573.0600    
    589.7335    
    518.5770    
    677.9651    
    523.3925    
    706.7170    
    544.8079    
    497.4608    
    609.0318    
    578.1599    
    632.9204    
    478.6939    
    754.8680    
    509.5293    
    561.7284    
    647.4127    
    561.8055    
    680.8950    
    702.4384    
    664.2625    
    602.3577    
    688.2142    
    650.0670    
    642.9523    
    652.5273    
    719.4487    
    762.6002    
    717.1326    
    624.0859    
    609.8406    
    536.2463    
    545.7707    
    655.2191    
    779.6594    
    679.1590    
    669.6481    
    500.9430    
    591.1196    
