  11100 12  1   LUAG4    PUC    BMW  .000 U S1 021093 00.01   1        
  PROGRAM LAMBDA-9   VERSION 02.31                                     
  USER BMW DATE & TIME  1993 02 10 15.28 37.73    9.9300    295K U     
 AU1 HO  50     0     0 LUAG             .600000 -  .700000 .00010     
 FILE NAME                                ON PC = LUAG4.SP             
 NO_POINTS  =  1001.    pts   DATA_INTV =  .000100 æm                  
 MIN_LAMBDA =   .600000 æm     MIN_DATA =    .18650                    
 MAX_LAMBDA =   .700000 æm     MAX_DATA =    .98530                    
 SCANSPEED  = 15.000000 NM/MIN SLITWIDTH=   .00000 æm                  
  RESP TIME =   .5      sec SENSITIVITY = 5          DATE=93/02/10     
 15:01:22    93/02/10                                                  
  LUAG4                                                                
  This spectra is part of Database LASERS
 Database LASERS was created by Pat Cross working 
 at NASA Langley Research Center, Internal Operations Group,
 Aerospace Electronics Systems Division, Remote Sensing 
 Technology Branch. phone:(757)864-1633   fax:(757)864-7894 
     e-mail p.l.cross@larc.nasa.gov 
     homepage http://aesd.larc.nasa.gov/laser/dbmain.htm
  EOH     (1X,F11.4)                                                   
  1001.         
    420.3044    
    239.7146    
    336.6438    
    379.1303    
    413.2518    
    176.2885    
    197.5268    
    290.0459    
    509.9410    
    282.3487    
    257.5296    
    304.0455    
    287.5949    
    285.8464    
    393.5240    
    326.4632    
    421.6740    
    306.1429    
    272.9060    
    246.0086    
    273.6049    
    273.9543    
    339.4279    
    356.6179    
    373.8206    
    410.0333    
    321.8961    
    508.0926    
    413.1917    
    182.5884    
    258.2311    
    202.0831    
    332.4019    
    292.8334    
    578.5447    
    280.9413    
    302.2769    
    511.5840    
    482.2516    
    450.8473    
    217.7665    
    428.2913    
    258.2297    
    365.7052    
    522.5151    
    442.3669    
    394.1509    
    268.3544    
    526.0320    
    271.1482    
    444.1107    
    440.2322    
    396.2432    
    337.6264    
    359.0141    
    313.1049    
    416.6270    
    410.6438    
    364.6183    
    316.5998    
    312.7471    
    353.0353    
    444.0663    
    425.4001    
    440.5355    
    224.3915    
    460.2607    
    273.2303    
    212.8971    
    345.3035    
    455.3094    
    151.3593    
    392.6688    
    405.6680    
    353.3545    
    294.8847    
    512.4518    
    385.9795    
    386.3275    
    502.8966    
    499.0060    
    343.1729    
    495.4654    
    329.1574    
    205.9337    
    357.1825    
    401.7580    
    414.7595    
    404.5612    
    331.2445    
    130.9128    
    241.8049    
    231.6975    
    227.8654    
    320.3824    
    310.2345    
    346.2872    
    380.2984    
    372.2248    
    305.3307    
    412.9515    
    360.6429    
    394.6738    
    392.9153    
    252.5988    
    246.6710    
    297.2762    
    207.6664    
    260.2655    
    394.9996    
    302.8602    
    444.2082    
    326.6366    
    574.1410    
    214.2732    
    308.7905    
    441.7215    
    359.8907    
    257.4606    
    379.5187    
    283.2765    
    489.9624    
    386.8752    
    340.9547    
    278.3815    
    436.4009    
    268.6072    
    200.0029    
    311.2041    
    511.7932    
    531.2147    
    518.8427    
    362.9921    
    289.8817    
    269.2887    
    501.1685    
    425.4476    
    310.1314    
    510.6785    
    489.8565    
    445.8236    
    345.0974    
    461.2991    
    226.4195    
    531.8273    
    367.4985    
    344.7293    
    321.9867    
    232.3291    
    550.5261    
    360.8218    
    335.9626    
    229.5375    
    328.2605    
    435.9025    
    463.6910    
    417.6196    
    308.6744    
    521.8427    
    562.4776    
    442.1999    
    274.4580    
    316.6942    
    420.0428    
    420.3888    
    366.0150    
    246.9169    
    427.7501    
    453.4086    
    447.4235    
    460.4349    
    424.9174    
    429.4799    
    366.6808    
    329.2347    
    270.9339    
    477.2955    
    408.0330    
    328.5201    
    417.1492    
    506.1656    
    419.9476    
    342.4919    
    467.0408    
    541.4313    
    442.4090    
    417.4619    
    529.7547    
    466.6581    
    530.4457    
    439.9184    
    467.6947    
    478.5993    
    388.3097    
    551.2456    
    619.5487    
    475.7568    
    301.5562    
    427.9272    
    468.3460    
    418.0862    
    363.7516    
    579.4646    
    467.6156    
    427.8927    
    386.1452    
    403.3169    
    462.6645    
    418.7415    
    353.9160    
    379.4628    
    453.4954    
    553.2189    
    456.2951    
    458.7500    
    465.4247    
    455.2203    
    535.8763    
    502.3667    
    418.3246    
    431.3058    
    486.4966    
    558.7880    
    419.7039    
    557.3574    
    612.8890    
    488.2203    
    442.1473    
    599.0504    
    565.4419    
    570.0270    
    426.6730    
    647.2092    
    598.6493    
    707.5941    
    658.8904    
    819.6193    
    399.2821    
    645.0183    
    604.9647    
    514.1781    
    493.3885    
    582.6459    
    508.8688    
    479.6395    
    592.1675    
    701.0547    
    677.9382    
    466.2467    
    742.6740    
    668.3154    
    628.2219    
    600.9456    
    701.3298    
    750.8105    
    695.6178    
    691.6954    
    602.6660    
    537.2976    
    647.9911    
    776.4178    
    669.9695    
    655.4077    
    532.6685    
    594.4599    
    601.1710    
    652.5270    
    659.2562    
    725.7020    
    619.5359    
    683.7186    
    632.9758    
    838.4488    
    691.1445    
    702.1515    
    702.4952    
    537.1375    
    652.0515    
    917.9762    
    834.4125    
    764.0292    
    772.9326    
    649.5149    
    795.0345    
    885.5709    
    961.3862    
    729.7523    
    678.9052    
    777.4764    
    917.4423    
    709.7800    
    812.7859    
    806.6977    
    777.0535    
    747.4538    
    771.3201    
    823.0812    
    838.4462    
    886.0739    
    723.5393    
    788.0194    
    846.2599    
    780.1422    
    746.2676    
    802.2432    
    689.3446    
    826.5124    
    820.4211    
    666.9501    
    703.5041    
    989.4178    
   1067.7594    
   1087.6487    
   1103.2091    
   1088.3344    
   1021.4290    
    879.3401    
   1117.6317    
   1137.5673    
   1177.1543    
   1177.4969    
   1186.5712    
   1379.9675    
   1174.1614    
   1360.8230    
   1325.9625    
   1556.2375    
   1650.1864    
   1812.0166    
   1579.5128    
   1756.4828    
   1810.7920    
   1971.6404    
   2172.7095    
   2209.7642    
   2196.3311    
   2513.5696    
   2471.9902    
   2718.1150    
   2652.6218    
   2732.9348    
   2982.2715    
   3059.1135    
   3186.8013    
   3751.7786    
   4064.3901    
   4269.7002    
   4842.7368    
   5564.9971    
   6492.2266    
   7086.2656    
   8017.4385    
   9386.5898    
  11341.0293    
  14330.8408    
  19082.7891    
  25892.9375    
  32040.2480    
  33397.7500    
  30310.3223    
  24653.5801    
  18633.6289    
  14371.3291    
  10859.0146    
   8477.2959    
   6966.0146    
   6726.5283    
   6632.3042    
   7628.9136    
   9863.4424    
  11652.6211    
  12499.4727    
  11156.9541    
   9452.8721    
   7778.6934    
   6743.9712    
   6038.2314    
   5047.5669    
   4380.0762    
   3973.0554    
   3955.8711    
   4473.3262    
   5280.4624    
   7796.9033    
  13359.6084    
  20522.0781    
  25527.2617    
  20324.3809    
  12145.0996    
   7166.9790    
   4440.4829    
   3536.1626    
   2954.4165    
   2959.5205    
   2598.7791    
   2629.5508    
   2601.8010    
   2494.8230    
   2562.7556    
   2959.1860    
   3607.9651    
   3791.0940    
   4098.9756    
   4332.4551    
   4859.5903    
   4933.3237    
   4729.8760    
   4706.8354    
   5206.6523    
   5853.3984    
   6303.9912    
   6519.0815    
   6431.5498    
   6494.2114    
   6763.0269    
   6774.8721    
   6500.9102    
   6113.3711    
   5472.6084    
   5467.5576    
   5972.9160    
   6682.2026    
   7680.4082    
   7382.0913    
   5615.3677    
   4352.7021    
   3389.4365    
   3155.3098    
   2933.3865    
   2566.3188    
   2664.9192    
   2513.3926    
   2632.7937    
   2446.6851    
   2512.0859    
   2699.4817    
   3346.7004    
   4510.3994    
   4824.1333    
   4521.3633    
   4228.1538    
   4370.9048    
   5583.5146    
   7615.4741    
   9163.8477    
   7881.7285    
   6070.4229    
   5803.2236    
   6734.3906    
   6546.2285    
   4460.9253    
   2912.7134    
   1928.7888    
   1541.8546    
   1271.3093    
   1258.5287    
   1487.5211    
   2201.2695    
   3293.6318    
   3867.9944    
   3063.4658    
   2285.2688    
   1902.8262    
   1806.3505    
   1307.5494    
   1253.1851    
   1092.4663    
   1277.9164    
   1500.4463    
   1620.5940    
   1710.1423    
   1514.7419    
   1583.8193    
   2151.8010    
   2232.2617    
   1990.9241    
   1397.2625    
   1311.9658    
   1356.1755    
   1455.5754    
   1495.6757    
   1968.0471    
   2598.3472    
   3801.6350    
   4772.0156    
   4868.8428    
   3373.3999    
   2266.5154    
   1803.6145    
   1476.6321    
   1435.0498    
   1107.4600    
    956.5731    
    982.7567    
   1039.2053    
    895.2714    
    824.9302    
   1118.1716    
    909.1678    
    894.4837    
   1203.9750    
   1226.1115    
   1423.6980    
   1846.9020    
   2037.0604    
   2945.2961    
   4477.3789    
   6435.5801    
   7836.4014    
   6769.4580    
   5937.2661    
   5590.6909    
   5289.9727    
   4344.3799    
   3580.4434    
   3405.0903    
   3301.2285    
   2605.5471    
   2293.1140    
   2554.9233    
   2926.6433    
   3141.6306    
   3752.9761    
   4506.2178    
   4175.7441    
   3496.1326    
   2928.6758    
   2247.9431    
   2319.5037    
   2453.7776    
   3240.8162    
   3800.5618    
   3885.2964    
   3707.3291    
   2912.4146    
   2149.9919    
   1494.7698    
   1262.3134    
   1073.5737    
    946.6903    
   1000.8384    
    910.8575    
    874.7536    
   1016.9461    
    781.4129    
    856.5028    
    936.1651    
    614.7180    
    394.2916    
    628.0840    
    768.5258    
    798.7087    
    916.7249    
    788.7220    
    836.0239    
   1001.6019    
   1101.3057    
    972.1335    
   1082.5027    
   1247.9320    
   1007.6031    
   1072.7024    
   1216.2548    
   1251.4645    
    869.3476    
   1054.6045    
   1041.9851    
    846.8309    
   1062.0995    
   1299.3551    
   1402.7162    
   1409.6477    
   1809.6216    
   1751.7416    
   1551.8469    
   1747.9452    
   1826.6754    
   1878.6934    
   1818.3762    
   1998.9669    
   2012.8898    
   2170.1094    
   1795.0677    
   1795.4053    
   2052.7788    
   2105.3750    
   1990.0179    
   2117.4280    
   2063.2078    
   1916.5219    
   1957.4662    
   1960.0624    
   2221.8125    
   2162.7500    
   1945.2719    
   1860.0361    
   1710.3766    
   1313.1814    
   1206.6471    
    992.7734    
    845.1484    
    847.6227    
    574.1887    
    822.6734    
    752.7102    
    702.0729    
    995.1344    
    963.2131    
    724.3089    
    460.9467    
    614.8644    
    735.9396    
    776.6846    
    698.4077    
    860.5551    
    833.1223    
    820.6542    
    761.3461    
    765.9384    
    660.1807    
    485.6247    
    561.6324    
    559.8632    
    446.8122    
    615.3599    
    579.8334    
    654.0754    
    610.0362    
    616.7074    
    459.3059    
    653.3071    
    455.7893    
    700.5692    
    839.1863    
    867.2930    
    646.5316    
    767.7462    
    928.2462    
    905.0123    
   1192.2041    
    856.4915    
    916.7331    
    874.2626    
    812.6891    
    527.3024    
    649.8977    
    734.9852    
    762.9421    
   1043.7482    
    812.5764    
    977.6961    
    960.8502    
   1081.7783    
    965.8169    
   1156.0222    
    970.7857    
    853.3315    
   1159.1981    
   1283.4926    
   1620.3821    
   1609.6301    
   1922.7555    
   2147.2483    
   1986.5728    
   1786.8799    
   2014.3684    
   2037.3346    
   2240.2097    
   2489.0898    
   2920.0642    
   3254.3418    
   3156.3069    
   3221.3696    
   2911.9480    
   2660.8564    
   2119.7673    
   1761.8612    
   2109.0757    
   2301.1672    
   2377.3369    
   3016.2317    
   3390.7595    
   3566.1721    
   3608.0681    
   3418.4167    
   2779.3030    
   1955.9396    
   1439.9261    
   1289.2118    
   1195.9849    
   1224.5607    
    987.1786    
   1002.5585    
   1147.4598    
   1241.1263    
   1087.5895    
   1165.7982    
    867.1064    
    833.3041    
    765.5384    
    825.4499    
    559.0707    
    713.5006    
    709.5992    
    610.6083    
    415.8368    
    537.6302    
    670.7286    
    439.8221    
    675.6279    
    629.4933    
    396.9825    
    372.3053    
    481.2508    
    479.4929    
    444.2591    
    398.6591    
    434.4812    
    320.2303    
    466.5160    
    540.2244    
    373.2396    
    327.8044    
    154.3317    
    125.8441    
    366.2505    
    414.5285    
    387.7510    
    226.1772    
    407.1877    
    226.8473    
    287.2276    
    456.2301    
    221.6513    
      0.0000    
    263.6992    
    228.8573    
    297.5338    
    493.8188    
    477.4024    
    427.5681    
    404.9503    
    177.1847    
    368.1173    
    401.7837    
    256.6962    
    517.4557    
    444.5318    
    245.2848    
    596.1965    
    326.7960    
    269.0565    
    477.5697    
    507.2216    
    534.8173    
    522.5655    
    357.9033    
    329.1385    
    314.9392    
    358.9071    
    444.7034    
    318.0176    
    380.7215    
    535.7297    
    310.7197    
    151.9185    
    551.4261    
    222.6998    
    305.8340    
    167.6712    
    406.3143    
    315.1360    
    327.9245    
    307.5059    
    359.7633    
    395.4829    
    262.9267    
    123.0202    
    203.6671    
    109.3075    
    222.9155    
    349.6298    
    250.4505    
    232.1812    
    178.8662    
    411.3281    
    218.7257    
    418.2508    
    204.9463    
    176.4164    
    331.8647    
    321.8200    
    376.1795    
    589.8695    
    318.6728    
    118.7616    
    203.4918    
    534.5080    
    222.7339    
    436.8605    
    306.1590    
    402.0856    
    275.7527    
    406.9193    
    604.0587    
    345.1801    
    330.9800    
    556.7283    
    479.5520    
    228.4711    
    195.7930    
    328.4974    
     52.6684    
    404.0076    
    487.8275    
    317.3857    
    249.3989    
    243.5333    
    142.8776    
    279.3556    
    398.0131    
    354.6729    
    563.8311    
    526.4160    
    621.2548    
    468.5034    
    452.1308    
    559.2025    
    574.2303    
    455.2189    
    390.9415    
    535.3699    
    354.1869    
     76.0540    
    415.1779    
    394.6884    
    562.2028    
    562.5361    
    429.0141    
    356.5201    
    517.4225    
    501.0131    
    453.2903    
    539.3693    
    516.6614    
    632.4645    
    504.7714    
    576.3636    
     83.1014    
    453.5352    
    362.2611    
    429.1758    
    373.3166    
    635.1292    
    359.4397    
    480.5900    
    237.9441    
    402.0174    
    298.5628    
    286.4775    
    355.2082    
    289.2129    
    295.7546    
    318.8703    
    369.0002    
    603.3633    
    517.7081    
    384.5461    
    380.7220    
    378.9760    
    211.6651    
    423.3333    
    125.9494    
    345.0068    
    169.7585    
    322.8635    
    372.9933    
    389.9527    
    452.7579    
    336.6315    
    363.9387    
    539.4481    
    242.4686    
    321.3795    
    127.8884    
    173.4171    
    503.4445    
    244.1312    
    178.5290    
    277.8439    
    417.1598    
    542.7731    
    303.6636    
    673.7195    
    399.7636    
    337.8050    
    119.5694    
    319.8190    
    407.3326    
    386.8734    
    170.1779    
    184.9073    
    379.5593    
    226.7594    
    413.4877    
    384.7116    
    372.5807    
    575.3366    
    191.3472    
     87.0077    
    373.9094    
    392.9383    
    256.5659    
    383.2131    
    548.3198    
    394.2666    
    429.9608    
    511.6536    
    407.7360    
    374.8224    
    226.2217    
    467.0462    
    486.1570    
    369.9229    
    163.7624    
    462.1169    
    393.7625    
    437.7772    
    336.3282    
    419.7073    
    143.1682    
    347.6863    
    269.3993    
    373.2413    
    433.8538    
    457.0966    
    415.7895    
    518.2907    
    531.1695    
    510.5941    
    548.5724    
    307.5182    
    471.9279    
    413.9525    
    190.9525    
    150.1961    
    452.4111    
    465.2457    
    480.1744    
    393.0814    
    474.5804    
    447.8188    
    496.1081    
    454.7317    
    305.6239    
    447.0630    
    227.8601    
    404.0430    
    288.3467    
    708.2753    
    315.8855    
    421.9975    
    482.7280    
    420.5815    
    629.9326    
    454.5412    
    571.8508    
    486.4707    
    159.8710    
    296.1239    
    354.3968    
    375.4616    
    471.4448    
    307.7824    
    341.2204    
    507.9029    
    133.8062    
    433.5364    
    508.8961    
    278.7811    
    326.6467    
    345.6080    
    593.9147    
    525.1727    
    402.5978    
    382.1716    
    223.3819    
    205.1968    
    564.4742    
    489.5831    
    249.4214    
    173.6433    
     85.8835    
    505.5113    
    660.8859    
    541.6854    
    460.6386    
    417.2865    
    262.3743    
    486.6344    
    254.7908    
