  11100 11  1 02T9.SP    PWP031 TLL  .000 # S1 072588 00.01   1        
  PROGRAM PE-CONVERT VERSION 02.30                                     
  USER TLL DATE & TIME  1988 08 10 08.55 14.60    4.8400    295K #     
 AU1 HO 200     0     0 YAG              .300000 -  .860000 .00020     
 FILE NAME ON PE-3600 = 002T9.SP          ON PC = 002T0009.SP          
 NO_POINTS  =  2801.    pts   DATA_INTV =  .000200 æm                  
 MIN_LAMBDA =   .300000 æm     MIN_DATA =    .00000                    
 MAX_LAMBDA =   .860000 æm     MAX_DATA =  43301.00                    
 SCANSPEED  = .03000000 æm/min SLITWIDTH=   .00020 æmITA =   0.        
       RESP =    .500   sec        ISMS =   0.       DATE=88/07/25     
       INST = 509.                    ? =   0.                         
 HO:YAG(2%HO);4.84MM THICK;.5SEC RES.                                  
  This spectra is part of Database LASERS
 Database LASERS was created by Pat Cross working 
 at NASA Langley Research Center, Internal Operations Group,
 Aerospace Electronics Systems Division, Remote Sensing 
 Technology Branch. phone:(757)864-1633   fax:(757)864-7894 
     e-mail p.l.cross@larc.nasa.gov 
     homepage http://aesd.larc.nasa.gov/laser/dbmain.htm
  EOH     (1X,F11.4)                                                   
  2801.         
    683.6170    
    700.7911    
    595.7250    
    577.0128    
    426.5220    
    465.3195    
    536.1831    
    392.4506    
    387.2454    
    428.5146    
    394.3431    
    607.6328    
    502.7054    
    621.9917    
    600.5536    
    349.9956    
    477.2022    
    453.4345    
    497.5695    
    297.9962    
    331.9022    
    457.9426    
    329.3613    
    361.6100    
    446.5708    
    424.6350    
    585.5490    
    419.4135    
    406.2906    
    449.2917    
    326.1068    
    541.1279    
    398.4794    
    436.1614    
    405.5008    
    433.5438    
    307.1355    
    412.5254    
    426.5440    
    389.8047    
    439.7002    
    492.4737    
    402.9171    
    320.2128    
    354.0864    
    383.7034    
    348.8708    
    352.3463    
    495.0413    
    328.8934    
    368.8640    
    304.6310    
    606.6042    
    467.6684    
    404.5722    
    364.4606    
    347.9327    
    357.4763    
    312.3637    
    376.5807    
    356.5562    
    320.1097    
    366.0777    
    330.4671    
    474.4076    
    400.8400    
    362.5042    
    446.2324    
    462.8526    
    351.1319    
    220.0399    
    462.7366    
    440.7922    
    378.8055    
    336.2368    
    292.1241    
    355.2399    
    313.6399    
    421.3061    
    254.9840    
    402.0271    
    392.4007    
    327.2812    
    441.1596    
    377.4744    
    420.0904    
    347.0109    
    430.4568    
    371.1945    
    438.2037    
    342.4828    
    336.3732    
    409.2358    
    303.4512    
    347.4600    
    389.0417    
    471.8791    
    311.8582    
    237.0325    
    332.4628    
    303.9253    
    358.2937    
    333.1414    
    346.0450    
    334.7401    
    254.6346    
    344.1129    
    302.6249    
    340.5160    
    351.6854    
    330.0090    
    265.4006    
    267.9057    
    369.5661    
    344.3955    
    369.4081    
    393.6093    
    430.9224    
    367.4326    
    441.2045    
    653.4154    
    281.8351    
    370.5573    
    452.1762    
    515.0992    
    714.4277    
    431.8419    
    365.7845    
    580.7208    
    320.7190    
    396.6915    
    422.6511    
    434.7321    
    425.0589    
    351.2996    
    308.9825    
    279.6961    
    430.7318    
    399.3573    
    407.0602    
    328.2891    
    384.3120    
    349.6355    
    294.4623    
    381.3948    
    435.9428    
    401.9627    
    395.7842    
    367.1238    
    509.6616    
    780.1607    
   1005.3902    
   1017.1721    
   1783.2162    
    940.7858    
   1026.7777    
    677.3313    
    499.0244    
    805.9408    
   1486.0836    
   1645.8060    
   2266.5496    
   1853.5029    
   1120.5331    
   1194.8661    
   1334.9043    
   1315.7605    
   2194.5042    
   1973.1774    
   1692.5817    
   2492.2908    
   1904.0746    
   1262.6357    
   3193.6091    
   2216.1230    
   5200.8125    
   4228.7036    
   1917.4657    
   3407.9944    
   1133.1824    
    843.7380    
    833.6357    
   1600.5618    
    917.4622    
    723.7033    
    629.4238    
    620.4272    
    693.8032    
    698.9692    
    684.5748    
    608.2996    
    645.2273    
    679.6188    
    575.2386    
    475.3954    
    453.5080    
    502.0856    
    495.8206    
    633.4195    
    553.1805    
    457.0592    
    662.9655    
    556.1807    
    509.6628    
    590.0745    
    646.3222    
    654.1007    
   1011.1903    
   1204.1293    
   1111.9628    
   1054.5817    
    767.8869    
    713.2997    
    722.0056    
    851.6693    
   1267.9620    
   1794.0551    
   1540.2631    
   1184.0922    
    862.3575    
    922.7455    
    983.4775    
   1130.2616    
   1766.3813    
   1854.0333    
   1481.4705    
   1166.3870    
   1441.7711    
   1227.3473    
   1921.1805    
   2575.1489    
   1099.5055    
    931.0049    
   1547.4363    
   2636.5540    
   2032.6818    
   2377.0112    
   1829.2529    
    699.2489    
    636.2899    
    549.2274    
    791.2208    
   1040.8180    
    977.5620    
   1332.0392    
   1161.7104    
    849.2983    
    804.2195    
   1035.7080    
    617.5216    
    561.2172    
    623.2595    
    646.8187    
    684.5690    
    976.7650    
   1338.4839    
    722.9000    
    752.8992    
    702.0676    
    638.2797    
    633.6649    
    639.6085    
    648.1968    
    631.2568    
    804.8309    
    965.8979    
    874.3367    
    708.0326    
    629.2862    
    667.8069    
    772.1932    
    928.1603    
   1280.2566    
   1229.5695    
   1537.3822    
   1952.9991    
   2392.2334    
   1852.9480    
   1537.1213    
   1837.4574    
   2485.8916    
   2864.4216    
   2226.6702    
   1759.4214    
   1819.0133    
   1913.6794    
   2270.3467    
   2626.9312    
   3116.1218    
   4893.8262    
   5152.3130    
   4239.9253    
   3761.4053    
   3082.5625    
   2257.0022    
   2216.6387    
   2843.6316    
   3362.5544    
   3208.9031    
   3083.0735    
   3784.3796    
   4205.3447    
   3869.3247    
   2438.8804    
   2330.3857    
   2594.9031    
   3426.7581    
   4795.8540    
   4642.7837    
   3625.9502    
   3002.5706    
   3255.5361    
   3547.3191    
   2651.0115    
   2100.6167    
   1884.2587    
   2087.7402    
   2262.3904    
   2473.4856    
   2898.5342    
   3177.9063    
   7228.0171    
   6963.2798    
   5753.6108    
   4616.7246    
   2812.1082    
   6427.0015    
   3362.1101    
   3526.0215    
   7741.4443    
   5755.1035    
   4438.4688    
   2582.2202    
   1782.3451    
   1560.2744    
   1658.0945    
   2419.9778    
   2818.4858    
   1988.0570    
   1941.8683    
   1235.9120    
    820.9391    
    801.0756    
    659.4535    
    544.0281    
    532.5032    
    327.2018    
    380.6186    
    384.6469    
    263.8366    
    344.9548    
    408.7130    
    264.8262    
    264.5923    
    343.9939    
    381.2379    
    348.6148    
    279.6961    
    391.6013    
    387.0848    
    311.9840    
    189.5853    
    385.4884    
    194.1473    
    202.2939    
    276.0964    
    303.7551    
    239.3772    
    262.7195    
    214.5368    
    332.4410    
    367.8991    
    280.3120    
    234.5776    
    257.8975    
    224.0155    
    189.4109    
    212.6261    
    158.8589    
    146.1176    
    269.0708    
    269.6672    
    258.4675    
    335.9781    
    226.0291    
    309.2087    
    256.6363    
    190.9471    
    238.4820    
    227.3192    
    259.0078    
    225.1463    
    265.2432    
    404.8770    
    243.7107    
    202.3711    
    321.6418    
    348.5069    
    320.2805    
    341.2003    
    308.7675    
    347.4643    
    550.2480    
    426.1357    
    491.8930    
    588.4080    
    686.6995    
    405.4208    
    423.0781    
    468.1819    
    627.8604    
   1210.0073    
   1145.3486    
   1127.6270    
   1399.6544    
   2166.7529    
   1100.1506    
    715.9182    
    434.8760    
    435.4552    
    809.4215    
   1989.8293    
   2238.7678    
    935.0901    
    615.0870    
    456.8882    
    590.1852    
    554.3950    
    691.5705    
   3199.6655    
   1353.6610    
    647.8500    
   1767.2299    
   3985.6763    
   1302.8700    
    945.5750    
    765.5826    
   1443.9312    
   1968.8439    
    973.0153    
    868.8782    
   1999.3213    
    849.5582    
    605.9901    
    798.3990    
   1168.9036    
   1891.5067    
   1134.3617    
    761.8397    
    884.6833    
    972.9726    
    321.2673    
    269.6414    
    305.5333    
    389.8494    
    396.3614    
    299.6459    
    242.2788    
    225.2752    
    317.3442    
    257.3708    
    331.1251    
    324.0918    
    400.0131    
    485.0517    
    371.4320    
    479.3199    
    411.6060    
    489.8614    
    626.7255    
    432.0121    
    285.3515    
    344.8843    
    615.9395    
    466.6763    
    363.4660    
    358.1000    
    340.0650    
    532.3516    
    274.6922    
    135.2715    
    198.0805    
    175.3488    
    154.3273    
    212.2378    
    209.4574    
    147.6994    
    184.7615    
    191.1336    
    209.1655    
    200.5570    
    197.7782    
    218.3188    
    210.5347    
    255.3307    
    215.8005    
    223.0188    
    227.7375    
    189.9808    
    249.7107    
    157.0548    
    165.8900    
    183.8626    
    175.2771    
    222.3948    
    238.7901    
    241.0046    
    209.0393    
    178.8344    
    274.4153    
    251.5360    
    242.0577    
    239.2619    
    245.6483    
    242.0171    
    235.0500    
    176.5435    
    249.4874    
    191.7346    
    167.3925    
    210.2700    
    183.3966    
    219.6725    
    191.1145    
    244.9215    
    173.1175    
    201.8679    
    246.5375    
    252.9183    
    269.3325    
    297.5013    
    237.0117    
    240.0497    
    284.0308    
    272.0159    
    300.1832    
    340.2018    
    316.3573    
    344.6383    
    362.8685    
    332.2444    
    340.3487    
    381.3510    
    354.8877    
    378.1953    
    379.5714    
    441.9358    
    401.7686    
    406.5328    
    419.7704    
    461.9174    
    487.1572    
    452.7703    
    475.4294    
    574.4074    
    569.7773    
    534.2606    
    588.0439    
    651.6298    
    701.6635    
    751.0603    
    835.9056    
    816.1687    
    795.5927    
    804.9072    
    837.1306    
    870.3359    
    894.7736    
   1370.6857    
   3927.3252    
   2492.5093    
   2954.3633    
   4997.7988    
   5871.5776    
   4288.0439    
   6457.1118    
   6632.2153    
   1707.4869    
   1228.4327    
   1507.2487    
   4397.5918    
   2421.9685    
   2879.2747    
   6234.4971    
   7976.8672    
   4999.3130    
   3168.7588    
   5929.2285    
   6298.1860    
   6328.6357    
  13807.8428    
  12255.7148    
  11154.7744    
   7783.0029    
   8072.1265    
  17920.5977    
  15661.1064    
   3999.1404    
   2070.4382    
   1139.1456    
    906.6379    
    969.3752    
   1077.4374    
   1719.0592    
   5631.1489    
  15406.5127    
   8607.8340    
   6282.6289    
   1797.6367    
   1829.0981    
   1629.1416    
   1128.1119    
   1047.5017    
   1056.0972    
   1132.3650    
   1207.3684    
   1832.6857    
   1974.6007    
   2214.5017    
   2592.6470    
   2093.6448    
   1349.9513    
   1070.5868    
   1341.7349    
   2688.3845    
   3163.4639    
   1531.4684    
   2299.7983    
   2458.4968    
   2323.1208    
   1626.0608    
    974.0297    
    840.9177    
   1195.5896    
   1202.4675    
   1136.7260    
   2993.2561    
   3647.3547    
   1510.3246    
   1086.4156    
    498.2911    
    285.0763    
    285.5811    
    260.3016    
    206.1256    
    179.3966    
    223.6728    
    247.3762    
    240.4164    
    245.8940    
    154.7528    
    199.7372    
    219.2442    
    213.1319    
    251.7239    
    241.4459    
    272.6549    
    291.4579    
    281.1403    
    251.7404    
    253.8999    
    246.9370    
    216.8128    
    315.2967    
    345.0386    
    376.5417    
    376.2013    
    378.3786    
    384.7536    
    311.6167    
    329.6388    
    363.5982    
    300.6104    
    315.2748    
    323.2791    
    322.1075    
    347.6653    
    398.4691    
    404.8503    
    360.8697    
    394.0746    
    466.2204    
    421.9801    
    440.1775    
    453.3337    
    504.6357    
    536.5845    
    622.5756    
    669.5342    
    657.9612    
    637.8015    
    635.7164    
    672.3691    
    744.6947    
    806.1599    
    858.3249    
    885.1906    
    938.6318    
    987.9012    
   1010.6396    
    994.2181    
   1089.4207    
   1088.1147    
   1106.5693    
   1119.6543    
   1106.6511    
   1108.9379    
   1154.4811    
   1154.0659    
   1192.5491    
   1241.1826    
   1232.5696    
   1280.4712    
   1327.6730    
   1335.5077    
   1328.6483    
   1316.2914    
   1325.0330    
   1357.6864    
   1490.6478    
   1526.6254    
   1584.3402    
   1634.8070    
   1731.2164    
   1952.5448    
   2339.3501    
   3898.7925    
   6655.7646    
   6444.8398    
   7568.6123    
   7381.1563    
   3141.4385    
   2342.7417    
   2461.2778    
   2650.7883    
   2865.0842    
   3372.6848    
   5256.2075    
  14233.9414    
  17371.8438    
  10713.3633    
  20793.4434    
  16041.6104    
   7907.9595    
   7550.7095    
  11293.4150    
  14735.7500    
   5864.4517    
   6618.3755    
   7793.6465    
   4200.3530    
   3224.5884    
   3526.7288    
   4984.7012    
   6949.1387    
   9100.8477    
   9662.6816    
   8153.1416    
   5198.1196    
   3739.6663    
   4751.8623    
   5465.4414    
   4913.5640    
   3808.9006    
   4316.5537    
   7854.5679    
  17144.9336    
  43301.3516    
  20800.3477    
  15717.2783    
  10637.1553    
  18941.4336    
  10408.4541    
   4533.3911    
   4162.3159    
   6319.4131    
   6961.2129    
   4987.0156    
   4068.3052    
   4990.5732    
   7731.6045    
  11482.8027    
  14491.1318    
  13332.0801    
  11834.9521    
   6993.9424    
   5646.8745    
   4974.8096    
   5642.2622    
   3734.2751    
   2522.3442    
   2889.6951    
   2399.7754    
   2099.2515    
   1994.8036    
   2602.0081    
   2853.8188    
   2228.0640    
   1668.3096    
   1505.6324    
   1441.1891    
   1371.6394    
   1345.5161    
   1315.8081    
   1288.9191    
   1243.9514    
   1233.5458    
   1282.1343    
   1596.7384    
   2185.9209    
   2878.4329    
   2968.4915    
   3638.2515    
   4592.2886    
   3247.8264    
   2348.8662    
   3095.8425    
   2682.9258    
   3406.0300    
   3555.0273    
   3611.1785    
   3558.2280    
   2002.0802    
   3644.5332    
   3318.7310    
   1434.4185    
   1213.9489    
   1508.5071    
   1242.0134    
   1164.8861    
    902.6573    
    883.8617    
    941.3362    
   1413.2533    
   1213.1533    
   1207.2994    
   1546.1998    
   1650.6782    
   1817.2858    
   1443.6908    
   1934.6714    
   2254.5957    
   2684.1399    
   3690.4629    
   4810.5059    
   1652.4988    
   5107.0918    
   2438.6501    
   2931.2117    
   1101.6012    
    949.6708    
   2203.4626    
   1495.9552    
   1577.3971    
   1680.2211    
   1834.7169    
   1805.5232    
   2974.8618    
   4668.4658    
   3566.7654    
   3323.2195    
   5745.9668    
   3730.2407    
   2496.9456    
   2845.2332    
   1459.3746    
   2095.8208    
   1846.9408    
   1323.1670    
   1577.2787    
   1821.5098    
   1699.3635    
   2399.4734    
   4844.3223    
   4824.3062    
   6919.2783    
   4774.2114    
   2801.6768    
   1897.1276    
   1798.8911    
   1354.2012    
   1015.9193    
   1022.5650    
   1126.1324    
   1272.3334    
   1591.1304    
   2450.4487    
   3691.1780    
   4148.0874    
   3316.5942    
   2407.6892    
   1875.1711    
   1466.1696    
   1358.2965    
   1051.9369    
   1134.2742    
   1042.2130    
    863.5648    
    955.8161    
   1219.5291    
   1036.9456    
   1162.9430    
   1060.0002    
   1085.3173    
   1185.8246    
   1386.5955    
   2954.5271    
   4548.1553    
   2531.7578    
   4722.0132    
   2320.1533    
   3912.5696    
   4636.5303    
   5722.2144    
   3545.4897    
   2301.3987    
   1469.6587    
   1183.6235    
   1052.1656    
    958.2886    
   1035.3701    
   1402.0602    
   1834.6110    
   3185.0876    
   4379.6079    
   5119.4473    
   3208.2295    
   3903.4331    
   5552.3042    
  10874.2197    
   8577.7158    
   8131.3193    
   2941.7717    
   6555.3184    
   3582.7139    
   1793.7554    
    698.2606    
    583.0635    
    625.0284    
    636.5189    
   1001.1199    
   1621.0880    
   3254.7458    
   9065.9531    
  12694.1162    
   3734.5281    
   2023.5990    
   1739.3961    
   1441.6815    
    538.6587    
    448.6175    
    400.7935    
    422.8494    
    591.0573    
    930.1852    
   1441.1301    
   1313.8326    
   1077.6074    
   1262.2603    
   1431.8986    
   1444.2727    
   1494.4197    
   1085.1503    
    881.0216    
    765.6241    
    813.4579    
    624.7845    
    478.7285    
    629.9134    
   1011.3976    
    834.6934    
    491.3761    
    402.6579    
    364.1789    
    405.2036    
    355.9766    
    382.0517    
    487.3408    
    645.3753    
    656.0137    
    569.2698    
    469.0561    
    749.5545    
   1630.4117    
   1102.8779    
    557.1584    
    393.0958    
    513.5257    
   1083.3669    
    701.3109    
    545.9052    
    549.7085    
    350.2772    
    335.8814    
    238.7740    
    218.0236    
    190.8170    
    186.3860    
    188.4494    
    186.4535    
    186.0812    
    143.5992    
    149.6969    
    158.2254    
    153.8103    
    173.6790    
    166.8277    
    152.7006    
    158.8011    
    164.0940    
    123.3309    
    131.8360    
    153.2739    
    149.6701    
    169.5224    
    147.3124    
    159.8764    
    149.8033    
    136.5127    
    135.3356    
    113.2044    
    141.0506    
    140.6798    
    131.4348    
    148.8213    
    139.5692    
    126.2949    
    131.5675    
    135.2288    
    148.5780    
    144.9759    
    123.6384    
    172.5215    
    147.8979    
    133.8088    
    170.5905    
    142.7458    
    138.3406    
    155.7258    
    155.3524    
    152.5557    
    178.0528    
    163.1196    
    148.2072    
    168.8383    
    178.9802    
    140.6342    
    129.7846    
    159.2579    
    139.5163    
    156.8934    
    125.0756    
    124.7045    
    135.6057    
    136.0385    
    169.5607    
    178.0801    
    165.5769    
    159.5474    
    156.7497    
    145.8881    
    148.7397    
    137.8866    
    164.1291    
    147.6151    
    135.1533    
    155.7376    
    176.3603    
    185.6888    
    165.9101    
    168.7644    
    189.4087    
    165.5871    
    126.5291    
    180.1843    
    155.5803    
    192.3704    
    183.9012    
    173.0154    
    196.0893    
    177.9137    
    157.3541    
    164.2378    
    210.7687    
    203.9056    
    208.3846    
    195.0472    
    186.5773    
    234.0123    
    244.1927    
    193.5252    
    209.3374    
    256.0531    
    230.4705    
    235.7707    
    254.8968    
    200.1412    
    254.9388    
    229.3629    
    238.7223    
    273.3219    
    231.4572    
    240.8170    
    259.1313    
    275.0309    
    242.0982    
    277.5150    
    295.0730    
    286.5221    
    273.0909    
    359.4113    
    330.3076    
    298.0218    
    319.6988    
    368.5119    
    387.8612    
    402.2972    
    426.6659    
    422.1333    
    430.8233    
    400.7015    
    425.0622    
    411.4492    
    440.7962    
    495.9816    
    466.5012    
    462.7796    
    495.5918    
    512.6649    
    516.4229    
    499.3611    
    542.3022    
    542.7263    
    576.6211    
    535.2241    
    581.6599    
    621.5667    
    625.3571    
    625.7805    
    642.2128    
    629.1537    
    677.6909    
    672.1931    
    673.4608    
    720.5006    
    693.7751    
    702.6742    
    727.7166    
    773.2866    
    834.4998    
    836.6399    
    827.6181    
    938.4639    
   1087.3912    
   1164.6471    
   1148.2405    
   1149.5472    
   1089.9580    
   1085.1012    
   1156.1232    
   1212.4836    
   1226.2686    
   1217.7782    
   1250.3149    
   1307.1807    
   1542.9447    
   1996.1462    
   3850.1362    
   6149.7285    
   3458.6724    
   4360.0835    
   3931.4038    
   6207.5420    
   8501.2637    
  16489.1836    
  37963.6328    
  15005.2031    
   6563.4473    
   7117.6016    
  16221.5381    
  12209.7324    
   5644.1162    
   4373.5708    
   4752.9092    
  11300.9287    
  18145.6445    
   5639.3828    
   3704.5659    
   4697.5205    
   8774.4629    
  24716.3418    
  34326.3281    
  27466.5625    
  12413.0938    
   8122.7842    
  15519.0488    
  15734.7695    
  18705.9004    
  12201.7969    
   5447.3945    
   3915.7939    
   4543.4370    
  10147.9980    
   5399.6245    
   3587.8926    
   5704.8179    
   7145.0767    
  11214.1533    
  26081.0879    
   8496.5166    
   4297.4580    
   6268.6860    
   4803.9380    
   3739.2148    
   9688.6465    
   5791.6816    
   3313.7114    
   6937.2256    
   4935.5352    
   7497.1182    
  10433.6133    
   6553.4751    
   6116.4600    
   1694.8019    
   1100.3954    
    988.9764    
    915.7900    
    910.1669    
   1030.2726    
   1196.8939    
   1490.4330    
   2476.7332    
   4230.2222    
   5054.4526    
   5848.1162    
   3238.1045    
   2373.9856    
   2159.1414    
   2115.8735    
   2276.3787    
   2406.4773    
   3070.2908    
   4598.5742    
   2705.8577    
   2448.0557    
   2727.2117    
   3641.1770    
   4343.9897    
   2004.4197    
   1723.2605    
   2001.4139    
   1904.6191    
   2041.5717    
   1223.6776    
   1064.6057    
   1224.5024    
   1355.3782    
   1576.6521    
   1692.5417    
   1659.5635    
   1169.0059    
    876.0418    
    741.7225    
   1183.4952    
   1780.8368    
   1118.2174    
    610.3742    
    500.1453    
    508.0064    
    636.7281    
    649.7227    
    563.2028    
    493.9302    
    618.2709    
    596.1132    
    504.2605    
    589.4235    
    788.6346    
   1095.4841    
    809.8886    
    493.0807    
    428.4070    
    423.0699    
    553.1557    
    644.5626    
    616.5023    
    676.4543    
    603.9507    
    723.6346    
   1120.1642    
    964.6210    
    507.5105    
    336.4572    
    227.6063    
    236.8744    
    246.9586    
    229.6394    
    201.9063    
    211.1507    
    157.8571    
    216.7906    
    177.0773    
    184.6973    
    175.4922    
    202.3569    
    177.1105    
    190.3369    
    193.1509    
    158.3345    
    188.3546    
    129.6205    
    144.3833    
    170.3592    
    222.8999    
    208.0409    
    193.2052    
    180.7932    
    186.8068    
    203.2488    
    165.2137    
    165.6207    
    170.0260    
    172.8326    
    161.2469    
    161.6536    
    158.8652    
    168.8604    
    196.4839    
    206.5142    
    138.1510    
    177.6825    
    206.9294    
    164.1049    
    138.1811    
    143.3691    
    178.9131    
    176.1199    
    202.1473    
    147.3833    
    191.7408    
    122.7087    
    123.1140    
    146.6133    
    196.5654    
    168.1722    
    237.5067    
    224.2492    
    170.9851    
    147.4486    
    100.9302    
    157.0294    
    141.4907    
    165.8199    
    231.9013    
    156.2547    
    147.0925    
    161.0517    
    197.4246    
    165.8508    
    148.7087    
    183.4339    
    174.2482    
    132.4039    
    199.0469    
    199.4505    
    172.6685    
    153.9246    
    141.5828    
    216.2879    
    191.8654    
    167.5004    
    143.1955    
    141.2111    
    144.7986    
    157.9466    
    131.2833    
    125.3277    
    199.0874    
    190.6910    
    159.9597    
    161.1594    
    179.9132    
    180.3155    
    132.1176    
    143.6535    
    159.9816    
    178.7303    
    207.9127    
    158.0004    
    205.5139    
    182.7322    
    125.7990    
    203.5183    
    211.1223    
    219.5344    
    192.7273    
    197.9243    
    183.9447    
    178.7585    
    179.1595    
    148.4858    
    208.7284    
    184.3525    
    162.4255    
    197.1361    
    150.4895    
    204.3330    
    199.1361    
    228.3504    
    193.5445    
    150.1055    
    220.7388    
    185.1645    
    181.5754    
    142.9597    
    152.9013    
    193.1506    
    215.9333    
    171.6154    
    197.5438    
    150.1282    
    147.3473    
    162.0643    
    163.2597    
    116.8008    
    191.9569    
    146.9600    
    137.8278    
    192.3549    
    195.1478    
    175.6094    
    175.2113    
    173.2208    
    176.0087    
    189.1623    
    172.0270    
    177.2042    
    202.3296    
    179.5947    
    183.1802    
    179.5942    
    149.7610    
    140.6298    
    235.1099    
    228.3006    
    194.3401    
    230.6974    
    153.7365    
    190.7481    
    164.8657    
    148.5748    
    185.5636    
    256.3245    
    255.1171    
    182.7713    
    246.2900    
    154.1356    
    186.3529    
    166.0556    
    148.9740    
    161.2839    
    183.9568    
    155.7215    
    143.4190    
    179.5741    
    174.3992    
    143.0218    
    222.2392    
    232.2302    
    158.4966    
    189.9157    
    207.0534    
    154.9208    
    171.2071    
    204.2529    
    211.0317    
    168.4203    
    142.6209    
    123.2168    
    164.0444    
    223.3903    
    226.1832    
    182.7215    
    190.2808    
    154.9065    
    171.9796    
    215.3819    
    222.9616    
    162.8370    
    159.2631    
    176.3387    
    220.5501    
    232.1277    
    175.9330    
    142.2067    
    199.7994    
    198.6005    
    196.6054    
    177.9056    
    184.6607    
    175.5157    
    152.8922    
    168.3607    
    199.7673    
    180.2706    
    140.2077    
    150.8982    
    211.7008    
    229.6474    
    196.5573    
    208.8971    
    188.5933    
    169.1237    
    163.9624    
    161.1835    
    183.8067    
    181.0208    
    181.4140    
    220.0162    
    246.7584    
    238.3609    
    231.5666    
    242.3432    
    210.0247    
    183.3701    
    152.0330    
    187.3335    
    220.3618    
    166.6846    
    233.1133    
    198.4452    
    202.8153    
    223.1203    
    234.6826    
    228.6904    
    233.0714    
    196.0270    
    265.8243    
    258.2145    
    195.6124    
    222.2721    
    225.0545    
    217.4772    
    251.3784    
    215.8715    
    286.5831    
    226.2151    
    193.1821    
    250.9391    
    220.2174    
    210.2587    
    241.7326    
    232.5487    
    259.2887    
    211.8230    
    205.8506    
    230.9237    
    256.8551    
    252.4523    
    272.8322    
    272.4224    
    276.0141    
    251.6192    
    316.0955    
    257.9926    
    257.5829    
    294.7914    
    271.1549    
    318.0469    
    228.8284    
    276.3255    
    285.5227    
    333.2760    
    290.3087    
    307.5375    
    299.1024    
    341.2752    
    295.0717    
    253.0693    
    302.2650    
    273.0238    
    275.8130    
    299.4243    
    339.1721    
    362.9246    
    315.0331    
    336.3161    
    347.9734    
    316.2003    
    355.1960    
    341.0899    
    345.5027    
    380.5646    
    363.2000    
    420.1856    
    404.3712    
    367.5912    
    411.6273    
    412.0157    
    414.8338    
    424.9495    
    376.7953    
    374.7620    
    425.3032    
    430.5576    
    402.5897    
    379.5422    
    420.3694    
    460.5426    
    430.0635    
    441.0014    
    460.0789    
    444.2122    
    468.1774    
    500.3581    
    455.1253    
    523.2006    
    536.6877    
    511.7096    
    574.3932    
    504.3147    
    559.5587    
    595.3062    
    674.2471    
    553.3339    
    613.7803    
    574.6373    
    615.3795    
    575.4109    
    588.9579    
    595.1074    
    563.4276    
    612.3632    
    595.4436    
    600.7716    
    606.9263    
    656.8870    
    637.4155    
    704.9772    
    721.1849    
    744.9301    
    766.2169    
    788.3856    
    782.9027    
    737.2906    
    799.6120    
    825.2130    
    781.9316    
    848.7306    
    872.7579    
    916.3458    
    939.6758    
   1005.7769    
    984.7797    
   1017.6838    
   1041.2366    
   1101.0656    
   1205.6516    
   1241.8809    
   1355.8625    
   1477.3776    
   1583.1172    
   1760.5969    
   1937.4180    
   2161.2378    
   2371.4224    
   2605.9172    
   2949.6379    
   3216.8147    
   3618.0906    
   4223.0938    
   5204.3506    
   6422.1436    
   8422.2861    
  12107.3291    
  19295.9238    
  32458.9902    
  41105.2109    
  30973.0625    
  15880.5342    
   9048.5234    
   6272.1074    
   5331.3384    
   5565.7412    
   7246.0571    
  12146.6924    
  18930.0137    
  14198.7393    
   8059.3657    
   5609.3477    
   5696.8750    
  10283.9609    
  23458.5293    
  13970.5850    
   7245.2007    
   5366.2681    
   3049.9819    
   2252.6897    
   2050.6191    
   2118.3643    
   2618.9705    
   3765.6765    
   5485.6362    
   4921.5762    
   4057.7827    
   4496.7822    
   6042.4170    
   7830.7295    
   7781.6040    
   7126.5913    
   5277.2759    
   3712.7266    
   3161.8706    
   3378.1567    
   4922.0410    
   8629.5693    
   9026.9795    
   5209.1479    
   3725.4009    
   3293.7600    
   3032.1155    
   3886.6968    
   6024.9097    
   9087.3721    
  10846.1611    
  10545.5039    
   4890.4980    
   3643.6204    
   4750.4556    
   2295.8347    
   1549.1025    
   1647.1212    
   1585.9188    
   1488.3463    
   1876.0276    
   1695.9894    
   2246.4038    
   1628.5397    
   1263.7819    
   1107.8466    
   1215.6576    
   2118.2437    
   4615.6714    
   4757.4028    
   1987.1830    
   1454.5315    
   1025.5374    
    904.3947    
    855.0501    
    919.5286    
    998.0363    
   1121.0389    
   1312.0796    
   1648.2405    
   2947.8625    
   6753.0015    
   9550.2559    
   5146.4307    
   5547.9609    
   3254.7947    
   2266.1331    
   3690.7961    
   4045.5183    
   2530.7229    
   4107.1108    
   5231.2891    
   3015.4067    
   3046.9038    
   6039.6538    
   4384.3218    
   1833.2375    
   1244.0106    
   1010.6629    
    906.6783    
    873.3450    
    903.2175    
    892.6328    
    973.4064    
   1082.2462    
   1210.4751    
   1375.5714    
   1445.9587    
   1564.3829    
   1819.7161    
   2066.3838    
   2172.0959    
   2081.3145    
   2006.3342    
   2017.9827    
   1844.1392    
   1454.7061    
   1215.0233    
   1110.7594    
   1169.8146    
   1351.7729    
   1564.8114    
   1948.9167    
   2403.2502    
   2751.6338    
   2541.4106    
   1763.6567    
   1271.0928    
    970.1414    
    834.8049    
    842.7230    
    838.9120    
    861.0931    
    885.0031    
    829.1620    
    708.0803    
    598.2252    
    664.2726    
    662.1799    
    760.9957    
    875.0351    
   1000.5418    
   1070.9059    
    995.3446    
    863.9478    
    769.9131    
    721.3361    
    790.6485    
    821.0688    
    823.1180    
    993.7373    
   1236.5703    
   1471.8737    
   1694.4421    
   2039.6815    
   2130.7119    
   1916.1433    
   1701.4075    
   1711.7964    
   2193.0999    
   3085.7642    
   2752.5044    
   2682.6257    
   3239.8811    
   3647.2036    
   3342.4771    
   3767.2336    
   4255.4917    
   2415.3640    
   1468.4944    
   1360.0859    
   1706.6810    
   1725.2688    
   1155.6420    
    840.8993    
    878.1497    
    776.6060    
    581.0031    
    450.8831    
    420.6974    
    457.2738    
    412.6190    
    400.9672    
    349.3793    
    317.1128    
    327.0325    
    338.5532    
    338.9289    
    282.1153    
    265.8694    
    283.6579    
    303.0631    
    293.9199    
    235.7871    
    285.9531    
    204.2637    
    255.8529    
    295.0038    
    316.0139    
    287.8296    
    253.4056    
    262.4691    
    300.0520    
    256.1094    
    274.6632    
    285.3270    
    288.0782    
    214.2682    
    270.6269    
    320.9326    
    269.7960    
    257.5298    
    253.1684    
    283.5754    
    278.4111    
    294.6189    
    237.3189    
    203.8694    
    216.8164    
    214.0467    
    243.5447    
    304.7917    
    260.0698    
    220.2609    
    286.9022    
    314.2199    
    250.5203    
    214.6822    
    322.4863    
    239.0324    
    210.3048    
    271.3342    
    234.6422    
    313.2452    
    225.1613    
    231.0415    
    255.8368    
    327.4393    
    286.5981    
    267.2149    
    214.8277    
    331.3158    
    284.1382    
    318.5681    
    206.1155    
    254.4673    
    249.3227    
    248.1199    
    203.6862    
    282.0074    
    285.5429    
    280.3835    
    236.6021    
    218.8946    
    225.5529    
    236.1474    
    256.9946    
    146.8197    
    286.9454    
    232.9200    
    208.1618    
    244.6797    
    242.6908    
    276.1691    
    278.9108    
    272.9687    
    219.0291    
    174.7500    
    246.5003    
    253.1715    
    285.0945    
    248.4047    
    266.8975    
    246.0015    
    219.6535    
    228.6626    
    247.9041    
    267.9698    
    285.7029    
    221.5140    
    248.6062    
    267.0922    
    240.6971    
    252.8696    
    344.1628    
    256.7628    
    243.7572    
    233.1256    
    282.3153    
    261.3992    
    234.2405    
    226.7593    
    203.6093    
    258.9473    
    220.0270    
    232.1712    
    217.6333    
    265.1587    
    279.7177    
    254.8794    
    272.5750    
    236.7543    
    230.0598    
    199.8655    
    212.7644    
    230.3871    
    247.2533    
    287.0029    
    277.9095    
    224.8106    
    247.1646    
    245.9634    
    260.4893    
    252.9935    
    273.8292    
    246.6602    
    249.3889    
    207.4053    
    243.0586    
    273.3184    
    292.6101    
    254.3862    
    252.3979    
    206.4970    
    185.7616    
    234.6614    
    260.9558    
    252.6771    
    222.4433    
    300.6784    
    232.5903    
    173.5266    
    186.3800    
    187.5308    
    240.3466    
    191.3939    
    219.1366    
    234.3956    
    201.8806    
    226.5128    
    270.0686    
    192.0513    
    217.4397    
    240.5364    
    198.6280    
    243.6288    
    141.7095    
    198.1737    
    251.0159    
    129.6184    
    190.6918    
    232.5137    
    221.1343    
    180.0989    
    218.7425    
    253.6010    
    267.3281    
    224.5462    
    221.7836    
    237.0348    
    202.9736    
    201.7810    
    195.9031    
    236.9429    
    186.4971    
    242.3846    
    241.1851    
    261.1701    
    219.9960    
    182.1040    
    211.3508    
    180.5039    
    183.9903    
    189.0363    
    258.2540    
    275.1206    
    258.9909    
    285.2964    
    250.3123    
    221.7027    
    216.5979    
    238.8761    
    239.2443    
    260.7839    
    207.9142    
    181.7649    
    248.5535    
    319.7165    
    206.2628    
    235.5561    
    242.1889    
    268.4388    
    265.6664    
    246.4268    
    169.5104    
    203.3757    
    267.1375    
    208.0119    
    251.3999    
    240.8001    
    254.4863    
    288.6212    
    234.0766    
    187.6071    
    252.0374    
    286.9449    
    202.7376    
    235.9137    
    193.3388    
    212.4217    
    192.5149    
    255.3925    
    252.6247    
    272.5986    
    201.7771    
    203.7028    
    216.5532    
    214.5790    
    236.0406    
    245.0146    
    216.4596    
    233.2319    
    199.2570    
    273.9132    
    302.5722    
    232.3536    
    254.6286    
    171.5225    
    238.1442    
    245.5512    
    259.2283    
    241.5905    
    247.4335    
    290.9304    
    255.9944    
    273.6046    
    246.5523    
    251.6139    
    194.9967    
    278.2088    
    252.7127    
    223.3773    
    184.0148    
    370.3105    
    264.3568    
    321.2902    
    235.3591    
    249.7968    
    306.6442    
    287.3640    
    331.7902    
    263.0031    
    313.6165    
    181.0443    
    222.6730    
    258.9843    
    246.0516    
    248.7624    
    270.2635    
    212.0275    
    238.1372    
    194.8529    
    203.7781    
    229.0839    
    299.9170    
    255.5979    
    288.0857    
    279.8234    
    220.7719    
    233.6177    
    280.1342    
    186.0711    
    219.1155    
    196.1275    
    240.1275    
    189.0838    
    253.3589    
    196.8102    
    235.3427    
    180.4493    
    196.3499    
    191.2737    
    279.8120    
    266.8643    
    220.3780    
    201.2837    
    238.2615    
    212.9054    
    227.2918    
    211.3002    
    275.6801    
    247.1107    
    154.1885    
    166.9428    
    252.8905    
    335.6151    
    238.7865    
    219.6653    
    234.0548    
    267.2194    
    216.0875    
    214.8950    
    221.4868    
    200.0714    
    236.2402    
    149.6425    
    269.7688    
    254.5008    
    289.2872    
    192.9351    
    237.6456    
    312.3439    
    372.5640    
    328.0038    
    272.6804    
    335.0249    
    300.0379    
    267.5168    
    319.6033    
    239.3605    
    222.5882    
    254.9095    
    253.7116    
    225.2359    
    206.9341    
    271.9886    
    233.3334    
    243.0486    
    204.5050    
    221.1914    
    245.6974    
    272.6061    
    220.7245    
    138.9697    
    235.4620    
    191.5254    
    299.4674    
    226.4307    
    250.1628    
    268.4781    
    287.6072    
    228.6621    
    223.5786    
    188.2284    
    180.0698    
    261.2860    
    164.5449    
    237.8445    
    208.6599    
    232.3424    
    266.2220    
    263.4626    
    219.4329    
    249.3687    
    201.5232    
    202.6617    
    194.4934    
    163.8963    
    345.1317    
    385.6844    
    432.7354    
    273.3339    
    286.1995    
    263.9103    
    216.7904    
    241.2553    
    191.1438    
    327.9645    
    357.4105    
    160.5183    
    347.1205    
    291.8048    
    219.6878    
    294.0926    
    376.9149    
    353.6495    
    325.7309    
    300.2355    
    301.3801    
    321.3255    
    217.9247    
    282.9181    
    232.6310    
    253.2225    
    309.0305    
    248.4945    
    287.0707    
    247.6617    
    321.4453    
    187.8541    
    219.2124    
    301.3874    
    318.9731    
    227.2843    
    321.2625    
    266.9111    
    213.6226    
    292.6099    
    221.3283    
    221.6896    
    266.3788    
    257.3921    
    271.7783    
    228.5671    
    269.3826    
    307.2268    
    183.9422    
    232.3413    
    317.7026    
    167.2609    
    257.5269    
    369.0216    
    321.4961    
    372.1045    
    280.0102    
    263.2247    
    317.4574    
    345.2533    
    356.6081    
    271.6778    
    227.7172    
    243.6076    
    333.7219    
    410.3982    
    236.9219    
    239.6117    
    177.2509    
    285.4784    
    262.4628    
    286.9795    
    239.0845    
    214.6263    
    333.4079    
    272.0500    
    338.0468    
    225.3659    
    319.9712    
    240.8288    
    308.9623    
    390.1371    
    280.8044    
    196.5610    
    271.3987    
    294.3621    
    318.1582    
    170.9799    
    169.7986    
    242.1003    
    199.8528    
    287.9420    
    223.0168    
    291.7803    
    201.2919    
    212.4803    
    212.0669    
    244.9783    
    212.7862    
    191.5014    
    242.1759    
    272.8433    
    277.8742    
    258.0091    
    229.6562    
    300.7766    
    236.5764    
     98.2992    
    245.8285    
    267.1609    
    282.3060    
    304.4925    
    105.4515    
    252.2819    
    204.6173    
    327.0206    
    219.2546    
    259.9315    
    254.8531    
    204.0934    
    281.2262    
    290.1504    
    271.8294    
    257.4256    
    170.4096    
    298.5998    
    293.5033    
    238.6911    
    165.6870    
    246.3852    
    352.7554    
    174.4615    
    239.7097    
    173.6385    
    173.2280    
    173.5866    
    207.1033    
    151.9996    
    163.1191    
    283.3731    
    209.3089    
    253.7912    
    307.8156    
    266.9276    
    248.6622    
    368.3246    
    295.2220    
    285.4619    
    220.6764    
    320.4648    
    312.2409    
    293.1195    
    237.5829    
    277.5026    
    341.7881    
    278.2187    
    263.8198    
    379.6826    
    265.3111    
    240.0891    
    231.1598    
    146.7778    
    280.7243    
    226.8210    
    247.2994    
    219.0351    
    183.9187    
    165.8172    
    261.1323    
    242.8927    
    189.9695    
    106.7153    
    289.7424    
    257.4919    
    241.5849    
    321.9670    
    182.1083    
    198.6357    
    256.9547    
    232.5428    
    305.8314    
    261.1278    
    211.9899    
    278.1339    
    263.7487    
    266.4326    
    422.2815    
    309.1102    
    274.4873    
    164.4624    
    208.6772    
    113.8622    
    341.3090    
    256.8896    
    257.2467    
    134.4081    
    208.5061    
    288.5709    
    194.5839    
    254.3851    
    312.9736    
    282.2324    
    159.8939    
    255.0380    
    293.3990    
    322.5459    
    212.8454    
    296.0235    
    170.4763    
    169.2964    
    317.3186    
    319.2328    
    269.8671    
    240.8135    
    309.4052    
    237.6633    
    287.5818    
    273.9753    
    221.7494    
    232.1380    
    318.5479    
    215.8799    
    242.4753    
    155.8797    
    285.7760    
    150.4657    
    234.6319    
    215.7057    
    233.8000    
    124.3584    
    159.9057    
    225.6096    
    284.7454    
    272.6986    
    292.4397    
    246.3327    
    217.3677    
    207.7124    
    254.3561    
    166.1766    
    226.5001    
    333.0332    
    292.1838    
    258.4554    
    289.7925    
    222.1122    
    230.1752    
    176.6898    
    237.8305    
    298.5536    
    228.5148    
    219.6235    
    180.7698    
    252.7356    
    173.8109    
    155.7801    
    256.8918    
    233.3156    
    355.4512    
    234.7967    
    243.6388    
    240.1371    
    261.3431    
    101.3764    
    156.6817    
    160.0979    
    218.7935    
    315.0446    
    224.1233    
    117.9803    
    256.4571    
    232.1214    
    323.8163    
    289.2419    
    271.0182    
    349.7905    
    285.6588    
    332.5911    
    234.6060    
    204.9487    
    222.9924    
    221.8085    
    309.4971    
    288.9181    
    158.4257    
    194.7898    
    146.1408    
    163.3143    
    214.2905    
    235.4263    
    172.7983    
    116.6437    
    232.6388    
    270.7988    
    248.7609    
    183.7644    
    158.0927    
    240.5741    
    292.6871    
    282.9776    
    396.1337    
    328.6602    
    307.2790    
    125.4666    
    242.2827    
     32.1288    
    254.5566    
    204.1223    
    342.8026    
    281.8796    
    151.5910    
    183.3027    
    228.9480    
    216.9990    
    309.2020    
    315.7602    
    233.4404    
    201.5234    
    330.0183    
    314.0728    
    217.1719    
    324.0914    
    128.3835    
    293.0235    
    250.1339    
    222.7834    
    236.2098    
    193.5611    
    298.6616    
    331.5793    
    310.2121    
    361.0593    
    273.7898    
    371.8947    
    253.6700    
    332.9248    
    270.5711    
    191.7329    
    159.9683    
    394.3016    
    346.3451    
    249.2107    
    298.1920    
    154.1040    
    314.3842    
    365.2281    
    170.4332    
    296.8652    
    363.9525    
    138.6888    
    112.4178    
    309.8856    
    266.1958    
    241.1349    
    170.9667    
    285.7753    
    209.9397    
    135.4215    
    249.0550    
    234.0272    
    222.8585    
    220.1426    
    258.9363    
    346.6948    
    414.0688    
    280.8112    
    102.1231    
    298.5104    
    374.1252    
    236.0180    
    219.4806    
    277.5271    
    282.5090    
    311.4549    
    237.7811    
    260.4392    
    239.2538    
    245.7555    
    273.8255    
    268.7819    
    447.8954    
    187.3667    
      3.6118    
     32.5393    
    219.8139    
    162.8182    
    225.8863    
    249.2792    
    267.3308    
    201.6581    
    182.1323    
     45.9049    
    161.4721    
    189.3012    
     82.4495    
    226.7551    
    303.3203    
    352.4644    
    302.4789    
    321.3891    
    282.3442    
    296.5839    
    162.7055    
    257.9878    
    136.0112    
    309.5776    
    175.5503    
    279.4127    
    278.9929    
    284.7407    
    121.4143    
    403.2967    
    306.6320    
    214.6979    
    225.7738    
    256.8274    
    386.3567    
    238.3305    
    222.5819    
    245.1746    
    165.9878    
    329.9002    
    295.4810    
    306.6376    
    236.1893    
    214.3227    
    231.5241    
    128.9084    
    270.6247    
    227.2147    
    114.7941    
    238.6486    
    159.5439    
    134.0518    
    178.5281    
    149.9482    
    447.2315    
    260.7140    
    332.7769    
    242.9921    
     81.2403    
    333.8301    
    309.4497    
    396.6190    
    374.4209    
    212.9307    
    405.4594    
    396.4666    
    120.3564    
    406.5121    
    288.3559    
    228.8094    
    300.6151    
    179.0990    
    262.0704    
    125.8439    
    213.7318    
    220.9650    
    208.3194    
    161.4117    
    211.3132    
    258.3821    
    304.8939    
    424.6739    
    144.1701    
    413.6812    
     92.6250    
    115.6586    
    154.6849    
    261.9539    
    337.8121    
    425.1373    
      0.0000    
    115.4909    
    166.6686    
    435.9006    
    348.4243    
    340.2642    
    255.8989    
    268.5285    
    103.5735    
    297.6795    
    183.1678    
    203.3375    
    197.5846    
      3.0552    
    255.6328    
    185.6807    
    252.4991    
    243.6566    
    192.8241    
    161.9790    
    279.9918    
    232.8098    
    360.9188    
    146.6783    
     24.1291    
    284.0469    
    210.1110    
    283.2101    
    312.8025    
    180.6824    
    104.4733    
    231.7202    
    272.6701    
     16.7888    
    215.1984    
     99.4257    
    306.3562    
    217.0105    
    112.5570    
    216.1828    
    295.4420    
    236.7434    
    189.7926    
    215.2917    
   1190.3356    
   1192.3624    
   1195.2275    
   1191.3837    
   1183.3508    
   1191.2437    
   1186.5636    
   1189.4277    
   1188.1002    
   1188.4495    
   1182.9336    
   1189.1478    
   1191.1736    
   1191.5227    
   1191.8718    
   1182.1661    
   1188.3789    
   1191.2423    
   1187.4020    
   1194.4543    
   1192.2893    
   1195.1523    
   1190.4728    
   1197.5272    
   1197.0375    
   1198.2250    
   1191.8683    
   1188.8665    
   1193.4039    
   1194.5908    
   1189.9127    
   1188.5861    
   1183.9111    
   1184.2599    
   1188.7946    
   1189.9808    
   1191.1671    
   1190.6781    
   1186.0031    
   1185.5144    
   1181.6790    
   1181.1907    
   1181.5392    
   1182.7245    
   1177.2179    
   1183.4214    
   1186.2797    
   1180.7715    
   1184.4667    
   1183.9781    
   1187.6731    
   1199.7445    
   1199.2559    
