  11100 11  1 02T17.SP   PWP031 TLL  .000 # I1 081288 00.01   1        
  PROGRAM PE-CONVERT VERSION 02.30                                     
  USER TLL DATE & TIME  1988 08 16 10.01 07.09    4.8400    295K #     
 AU1 HO 200     0     0 YAG              .840000 - 1.400000 .00020     
 FILE NAME ON PE-3600 = 002T17.SP         ON PC = 002T0017.SP          
 NO_POINTS  =  2801.    pts   DATA_INTV =  .000200 æm                  
 MIN_LAMBDA =   .840000 æm     MIN_DATA =   0.00010                    
 MAX_LAMBDA =  1.400000 æm     MAX_DATA =  5297.400                    
 SCANSPEED  = .03000000 æm/min SLITWIDTH=   .00020 æmITA =   0.        
       RESP =    .500   sec        ISMS =   0.       DATE=88/08/12     
       INST = 509.                    ? =   0.                         
 HO:YAG(2%HO);.5SEC. RES.;SAMPLE CODE WP031                            
  This spectra is part of Database LASERS
 Database LASERS was created by Pat Cross working 
 at NASA Langley Research Center, Internal Operations Group,
 Aerospace Electronics Systems Division, Remote Sensing 
 Technology Branch. phone:(757)864-1633   fax:(757)864-7894 
     e-mail p.l.cross@larc.nasa.gov 
     homepage http://aesd.larc.nasa.gov/laser/dbmain.htm
  EOH     (1X,F11.4)                                                   
  2801.         
      0.0001    
      0.0145    
      0.0289    
      0.0433    
      0.0577    
      0.0721    
      0.0865    
      0.1009    
      0.1153    
      0.1298    
      0.1442    
      0.1586    
      0.1730    
      0.1874    
      0.2018    
      0.2162    
      0.2306    
      0.2450    
      0.2594    
      0.2738    
      0.2882    
      0.3026    
      0.3170    
      0.3314    
      0.3458    
      0.3602    
      0.3746    
      0.3890    
      0.4034    
      0.4178    
      0.4322    
      0.4466    
      0.4610    
      0.4754    
      0.4898    
      0.5042    
      0.5186    
      0.5330    
      0.5474    
      0.5618    
      0.5762    
      0.5906    
      0.6050    
      0.6194    
      0.6338    
      0.6482    
      0.6626    
      0.6770    
    178.1561    
    182.5769    
    177.2269    
    175.9484    
    172.2297    
    173.3930    
    166.4223    
    164.3336    
    164.6831    
    161.7811    
    154.0074    
    153.5458    
    149.8358    
    143.6945    
    144.8552    
    140.3390    
    130.9643    
    129.6935    
    132.4731    
    127.9633    
    125.8825    
    124.6136    
    120.9162    
    117.2223    
    123.2340    
    122.7739    
    115.8434    
    112.9594    
    103.6131    
    110.4244    
    109.1573    
    105.4679    
    103.3950    
    101.3207    
    102.4771    
    101.2123    
     95.1050    
    101.9101    
     94.9970    
    100.1863    
     95.6947    
     93.6237    
     90.7489    
     89.4853    
     85.8041    
     90.9880    
     89.7253    
     88.4620    
     86.3941    
     81.1039    
     80.6482    
     83.4119    
     85.3716    
     81.6940    
     80.4312    
     82.3911    
     83.5439    
     88.7245    
     81.0210    
     80.5635    
     81.7179    
     84.4818    
     83.2188    
     78.7385    
     79.0868    
     77.8257    
     83.8080    
     85.7656    
     78.0669    
     76.0027    
     78.7634    
     79.9152    
     79.4597    
     77.3954    
     80.1560    
     74.0705    
     84.8759    
     80.3967    
     86.3759    
     84.3094    
     87.0720    
     92.2498    
     93.4041    
    101.8062    
     96.5155    
     92.8372    
    102.0449    
    102.3928    
    107.5765    
    108.7297    
    105.0483    
    108.6199    
    108.9677    
    118.1879    
    116.1148    
    121.3037    
    134.5729    
    132.4962    
    133.6519    
    136.4231    
    143.2390    
    150.8663    
    151.2139    
    158.0374    
    156.7663    
    162.7825    
    176.9095    
    183.7481    
    186.5312    
    195.8122    
    196.9723    
    198.9453    
    214.7457    
    215.0930    
    219.5106    
    229.6343    
    234.8728    
    245.8258    
    256.7897    
    257.1369    
    271.3845    
    275.8232    
    289.2752    
    296.1811    
    306.3735    
    313.2898    
    316.1017    
    328.7799    
    345.5912    
    348.4095    
    356.1761    
    365.5979    
    387.4279    
    391.0834    
    403.0200    
    413.3120    
    415.3165    
    425.6196    
    441.7487    
    452.0757    
    462.4132    
    469.4255    
    473.9401    
    484.2967    
    498.0058    
    501.6953    
    507.0597    
    509.9151    
    521.1425    
    531.5438    
    541.9540    
    553.2140    
    551.8806    
    555.5875    
    569.3844    
    576.4617    
    576.8082    
    583.8908    
    595.1935    
    598.9127    
    601.7902    
    607.1996    
    608.3903    
    602.8293    
    609.9262    
    617.8735    
    616.5300    
    616.0324    
    623.1370    
    653.9544    
    667.0236    
    666.5210    
    666.0194    
    659.5791    
    654.8385    
    654.3369    
    662.3129    
    655.0291    
    651.9850    
    649.7902    
    645.9011    
    649.6351    
    644.0539    
    643.5533    
    637.9760    
    628.1760    
    629.3661    
    626.3333    
    619.9211    
    613.5143    
    607.9553    
    601.5566    
    606.9611    
    603.0911    
    601.7521    
    598.7270    
    594.8618    
    596.0497    
    595.5532    
    593.3724    
    589.5099    
    589.0139    
    581.7889    
    579.6128    
    574.0756    
    562.6657    
    562.1719    
    560.8390    
    561.1844    
    558.1749    
    553.4884    
    547.9673    
    549.1507    
    549.4961    
    546.4908    
    543.4856    
    540.4824    
    533.2964    
    527.7880    
    523.1185    
    522.6281    
    518.7968    
    511.6277    
    504.4640    
    504.8092    
    503.4872    
    496.3302    
    487.5141    
    479.5371    
    470.7355    
    471.0806    
    458.9675    
    453.5035    
    437.2684    
    422.7152    
    418.9258    
    406.8764    
    398.9664    
    390.2393    
    373.2863    
    364.5814    
    350.1359    
    347.1962    
    336.0554    
    325.7465    
    315.4485    
    300.2573    
    286.7224    
    273.2051    
    263.7767    
    255.9835    
    242.5097    
    233.1101    
    225.3427    
    219.2017    
    207.3959    
    195.6063    
    188.6764    
    184.9813    
    174.8329    
    170.3368    
    164.2325    
    154.1052    
    154.4497    
    149.1588    
    149.5032    
    142.6077    
    138.1286    
    133.6527    
    132.3892    
    135.1439    
    129.0626    
    127.8018    
    124.1331    
    126.8845    
    127.2288    
    126.7692    
    123.1023    
    122.6431    
    122.1858    
    124.1347    
    124.4788    
    121.6136    
    123.5622    
    127.9186    
    125.0517    
    131.0139    
    132.9637    
    126.8870    
    131.2421    
    134.7976    
    137.5508    
    139.5012    
    135.8293    
    134.5672    
    134.1092    
    140.8766    
    146.0405    
    140.7600    
    146.7281    
    151.0911    
    153.8462    
    152.5816    
    152.1223    
    155.6805    
    160.8499    
    165.2175    
    166.3652    
    168.3189    
    173.4935    
    169.0061    
    172.5716    
    176.9410    
    183.7311    
    184.8818    
    185.2253    
    188.7924    
    191.5557    
    193.5127    
    193.8561    
    192.5859    
    204.2274    
    196.5000    
    199.2645    
    199.6078    
    199.9511    
    202.7142    
    204.6732    
    211.4772    
    214.2437    
    212.1637    
    223.8227    
    221.7396    
    230.1716    
    232.9419    
    231.6662    
    234.4377    
    229.9246    
    241.6003    
    245.1841    
    252.8215    
    253.9745    
    255.1295    
    259.5273    
    267.9858    
    273.2007    
    281.6694    
    282.0123    
    286.4200    
    292.4566    
    296.0540    
    302.9101    
    305.6967    
    312.5584    
    307.1971    
    311.6136    
    316.8472    
    313.1142    
    319.1637    
    315.4291    
    314.1423    
    318.5606    
    314.8276    
    315.9854    
    320.4040    
    319.9311    
    321.0892    
    315.7254    
    316.8831    
    309.0780    
    309.4205    
    298.3678    
    295.4572    
    291.7336    
    278.2663    
    278.6087    
    267.5917    
    267.1230    
    265.8435    
    260.5121    
    255.9930    
    254.7163    
    252.6300    
    249.7338    
    248.4572    
    246.3716    
    232.1619    
    232.5042    
    224.7701    
    224.3049    
    218.9982    
    215.3076    
    210.8123    
    211.9616    
    209.0782    
    209.4202    
    205.7339    
    202.8546    
    199.9753    
    194.6835    
    190.1999    
    183.3059    
    185.2547    
    175.9557    
    173.8882    
    167.0075    
    164.1401    
    159.6708    
    153.6010    
    153.9428    
    155.0869    
    153.0239    
    149.3623    
    146.5000    
    146.8418    
    139.9821    
    141.1230    
    142.2658    
    135.4081    
    138.1499    
    134.4931    
    134.8347    
    131.9787    
    123.5338    
    127.0702    
    128.2097    
    131.7483    
    129.6917    
    126.0400    
    125.5828    
    125.1257    
    128.6608    
    126.6071    
    127.7472    
    131.2827    
    127.6313    
    131.1675    
    133.1057    
    139.8398    
    136.1864    
    138.1243    
    136.8690    
    141.2049    
    143.1452    
    142.6868    
    141.4291    
    140.9718    
    148.5076    
    152.0479    
    152.3890    
    146.3319    
    146.6730    
    149.4143    
    155.3538    
    154.8955    
    150.4374    
    151.5773    
    147.1209    
    153.0592    
    158.2000    
    152.9411    
    153.2820    
    157.6232    
    154.7637    
    152.7050    
    155.4455    
    156.5872    
    148.1325    
    150.0712    
    150.4119    
    151.5522    
    147.0988    
    143.4445    
    141.3890    
    134.5452    
    132.4918    
    130.4399    
    128.3876    
    123.9450    
    117.1154    
    118.2517    
    116.2034    
    110.1748    
    111.3114    
    106.0819    
    106.4224    
     97.2214    
    102.3315    
     90.7506    
     89.5034    
     95.4040    
     90.1842    
     87.3481    
     90.0708    
     84.8543    
     81.2276    
     80.7745    
     83.4952    
     84.6282    
     81.7954    
     77.3773    
     74.5460    
     74.0944    
     74.4346    
     77.1523    
     69.5674    
     69.1163    
     74.2100    
     72.1726    
     71.7212    
     74.4377    
     69.2325    
     64.8219    
     69.9126    
     71.8370    
     71.3848    
     70.9326    
     71.2726    
     70.0285    
     68.7855    
     69.9164    
     69.4653    
     67.4299    
     64.6035    
     66.5264    
     71.6158    
     70.3719    
     63.5897    
     63.9295    
     67.4348    
     59.0727    
     60.9933    
     64.4973    
     63.2548    
     62.0124    
     61.5621    
     68.2299    
     67.7773    
     58.6273    
     62.1298    
     61.6786    
     62.8090    
     63.9394    
     64.2790    
     59.8751    
     61.7958    
     63.7158    
     67.2189    
     65.9764    
     60.7811    
     63.4932    
     66.9947    
     68.1241    
     63.7198    
     61.6886    
     59.6570    
     62.3673    
     61.1259    
     63.8354    
     61.0142    
     60.5642    
     60.1124    
     58.8725    
     63.1615    
     60.3409    
     59.1001    
     61.8084    
     60.5684    
     61.6976    
     63.6169    
     56.8469    
     61.1349    
     55.9469    
     57.0755    
     61.3622    
     55.3851    
     53.3572    
     56.0631    
     60.3498    
     62.2673    
     60.2371    
     57.4189    
     54.6017    
     58.0968    
     63.1721    
     66.6705    
     63.0610    
     58.6638    
     69.2661    
     66.4459    
     74.6845    
     78.1857    
     76.9431    
     80.4447    
     78.4121    
     90.6147    
     88.5799    
     91.2920    
     95.5892    
     96.7188    
    106.5631    
    108.4871    
    107.2403    
    106.7872    
    103.9568    
    105.8792    
    107.8028    
    103.3878    
     99.7659    
     96.9381    
     90.9459    
     84.9576    
     79.7635    
     80.1019    
     77.2806    
     71.3014    
     70.8502    
     63.2975    
     64.4247    
     62.3964    
     55.6400    
     49.6752    
     53.9521    
     51.1395    
     44.3907    
     45.5163    
     44.2799    
     42.2576    
     45.7435    
     41.3600    
     40.9113    
     34.9573    
     41.5875    
     41.9256    
     42.2637    
     40.2424    
     35.8623    
     39.3452    
     39.6832    
     37.6618    
     34.8557    
     38.3378    
     38.6757    
     37.4410    
     39.3516    
     40.4759    
     35.3111    
     40.3653    
     39.1305    
     37.1107    
     42.1652    
     37.7864    
     35.7662    
     32.9618    
     35.6568    
     38.3514    
     41.0475    
     39.0269    
     37.7927    
     35.7738    
     37.6831    
     38.8057    
     40.7152    
     33.9829    
     32.7497    
     33.0873    
     38.9220    
     41.6172    
     43.5268    
     37.5785    
     36.3459    
     40.6097    
     37.8054    
     36.5719    
     34.5543    
     30.1823    
     36.0135    
     37.9217    
     39.0455    
     35.4561    
     35.0083    
     34.5606    
     38.8240    
     39.1613    
     33.2185    
     28.0630    
     31.5387    
     33.4455    
     36.1375    
     34.9048    
     30.5347    
     29.3029    
     29.6401    
     34.6839    
     37.3746    
     33.0041    
     29.4199    
     33.6783    
     32.4463    
     31.2155    
     35.4751    
     32.6740    
     26.7385    
     33.3480    
     33.6850    
     35.5909    
     33.5745    
     28.4234    
     31.8965    
     31.4484    
     34.9222    
     34.4748    
     29.3240    
     31.2287    
     32.3495    
     33.4695    
     33.0232    
     30.2242    
     32.9127    
     24.6310    
     32.8022    
     34.7070    
     30.3413    
     30.6780    
     23.1816    
     28.2171    
     33.2546    
     36.7270    
     31.5767    
     30.3471    
     32.2499    
     35.7215    
     33.7076    
     34.0442    
     28.1140    
     27.6673    
     24.0896    
     33.0394    
     30.2422    
     32.9288    
     32.4818    
     31.2516    
     33.1547    
     32.7086    
     30.6952    
     30.2485    
     24.3228    
     28.5721    
     32.8238    
     31.5938    
     34.2787    
     28.3515    
     32.6026    
     31.3727    
     31.7089    
     33.6113    
     30.8164    
     28.8043    
     32.2707    
     31.0412    
     29.0301    
     28.5836    
     27.3547    
     27.6908    
     31.1571    
     27.5814    
     27.1342    
     30.6000    
     30.1544    
     28.9255    
     31.6080    
     28.8142    
     28.3687    
     27.1403    
     31.3868    
     34.0703    
     32.0586    
     27.7017    
     25.6925    
     26.8094    
     33.4020    
     35.3029    
     33.2921    
     25.0261    
     31.6168    
     28.8242    
     31.5061    
     32.6240    
     28.2685    
     34.0777    
     34.4134    
     27.7119    
     28.8293    
     31.5097    
     27.9381    
     29.8362    
     30.1718    
     35.1983    
     33.1877    
     28.8334    
     26.0438    
     30.2870    
     32.9669    
     31.7388    
     30.5109    
     26.1586    
     28.8382    
     31.5173    
     31.0720    
     31.4074    
     26.2733    
     24.2664    
     24.6018    
     25.7181    
     26.8345    
     24.0459    
     27.5051    
     30.1830    
     30.5183    
     30.0732    
     28.0651    
     24.4968    
     24.8321    
     28.2898    
     31.7493    
     31.3024    
     24.6114    
     24.9465    
     22.9401    
     28.7388    
     29.0739    
     28.6281    
     26.6220    
     30.0791    
     31.1950    
     26.0660    
     26.4010    
     28.2971    
     28.6321    
     23.5051    
     26.1809    
     25.7346    
     24.5099    
     24.8448    
     23.6194    
     27.8554    
     29.7502    
     29.3046    
     29.6395    
     28.4135    
     24.8483    
     31.4243    
     30.1991    
     29.7526    
     28.5278    
     30.4221    
     27.6369    
     29.5319    
     31.4262    
     25.5211    
     29.7557    
     33.2114    
     31.9854    
     33.0994    
     31.0942    
     22.8516    
     25.5250    
     27.4190    
     32.4324    
     28.8670    
     31.5413    
     29.5360    
     36.1102    
     31.7647    
     31.3202    
     31.6546    
     29.6496    
     32.3234    
     40.4581    
     38.4512    
     33.3266    
     31.3215    
     33.2145    
     35.8886    
     37.0030    
     36.5572    
     34.5517    
     38.7859    
     33.6615    
     35.5544    
     30.4329    
     29.2084    
     30.3210    
     32.2141    
     35.6667    
     36.7806    
     34.7756    
     39.0086    
     33.8847    
     38.8960    
     35.3334    
     40.3449    
     38.3395    
     33.9962    
     41.3470    
     36.2231    
     42.0150    
     42.3490    
     38.0055    
     36.7804    
     41.7911    
     39.7859    
     43.2378    
     42.0131    
     37.6696    
     36.4457    
     38.3373    
     37.1134    
     35.1106    
     31.5497    
     33.4412    
     36.8902    
     38.7824    
     32.1070    
     29.3262    
     24.9909    
     26.8810    
     29.5489    
     33.7755    
     29.4378    
     30.5498    
     29.3267    
     31.9956    
     27.6601    
     22.5481    
     23.6604    
     23.2152    
     26.6602    
     30.1052    
     28.8834    
     23.7726    
     28.7723    
     32.2184    
     31.7727    
     33.6627    
     25.4399    
     28.8827    
     26.1067    
     27.2169    
     30.6617    
     30.9951    
     30.5496    
     23.1094    
     25.7741    
     28.4402    
     30.3290    
     26.7740    
     25.5523    
     25.8856    
     28.5513    
     31.9952    
     28.4402    
     31.8829    
     23.6654    
     25.5538    
     26.6642    
     30.8835    
     26.5533    
     28.4409    
     30.3288    
     33.7712    
     32.5490    
     31.3280    
     31.6611    
     28.8848    
     31.5487    
     29.5508    
     32.2147    
     30.2167    
     31.3269    
     33.2136    
     32.7701    
     35.4343    
     32.6586    
     29.1068    
     27.8858    
     28.9947    
     32.4357    
     34.3229    
     31.5471    
     37.3206    
     32.2127    
     34.8769    
     39.0955    
     36.3196    
     34.3199    
     31.5465    
     31.8792    
     34.5419    
     33.3206    
     35.2072    
     36.3160    
     38.9811    
     41.6458    
     38.8691    
     32.9868    
     30.9894    
     35.2055    
     37.0919    
     35.8706    
     34.6496    
     33.4296    
     32.2090    
     37.2007    
     37.5331    
     37.0888    
     33.5388    
     32.3183    
     34.9793    
     34.5361    
     40.3036    
     39.0832    
     37.0863    
     34.3126    
     40.0802    
     39.6358    
     39.9681    
     36.4174    
     35.9742    
     34.7528    
     37.4142    
     38.5238    
     35.7495    
     31.4270    
     36.4139    
     37.5234    
     40.9604    
     42.8458    
     40.0717    
     38.8520    
     36.8562    
     37.9636    
     42.1775    
     36.3003    
     38.1846    
     36.1884    
     42.7283    
     40.7312    
     41.8405    
     39.8446    
     41.7272    
     42.8364    
     38.5123    
     39.6203    
     39.1762    
     37.1813    
     36.7365    
     34.7423    
     38.9519    
     41.6116    
     37.2891    
     38.3957    
     30.1996    
     33.6323    
     34.7386    
     37.3968    
     39.2799    
     38.0603    
     40.7181    
     42.6015    
     43.7091    
     40.1619    
     34.2921    
     39.2750    
     39.6066    
     37.6129    
     45.6990    
     43.7031    
     40.9331    
     42.0402    
     37.7203    
     40.3769    
     39.1577    
     44.1411    
     41.3714    
     42.4775    
     44.3609    
     39.2657    
     39.5971    
     41.4781    
     44.1348    
     40.5914    
     42.4724    
     41.2542    
     42.3608    
     45.7917    
     45.3486    
     46.4544    
     44.4605    
     40.9161    
     41.2474    
     44.6801    
     46.5619    
     43.0172    
     41.0244    
     46.7794    
     46.3363    
     49.7671    
     56.3038    
     44.2285    
     43.7856    
     41.7931    
     49.0977    
     47.8793    
     44.3361    
     41.5673    
     42.6739    
     47.6534    
     45.6605    
     43.6671    
     45.5468    
     41.2308    
     45.4349    
     51.1898    
     49.9705    
     50.3015    
     50.6324    
     50.9634    
     52.0694    
     53.1754    
     54.2815    
     52.2870    
     48.7442    
     52.9487    
     55.6050    
     55.9358    
     50.8414    
     55.8222    
     53.0528    
     60.3585    
     60.6893    
     50.9467    
     55.9258    
     56.2565    
     61.2377    
     62.3429    
     63.4500    
     63.0043    
     57.9099    
     64.4420    
     70.9777    
     70.5324    
     63.8829    
     61.1133    
     65.3186    
     65.6492    
     65.9797    
     65.5357    
     66.6408    
     66.9713    
     69.6284    
     72.2870    
     67.1882    
     66.7442    
     64.7489    
     68.1796    
     70.8365    
     73.4930    
     73.8233    
     72.6023    
     70.6060    
     72.4884    
     71.2667    
     74.7003    
     74.2540    
     72.2577    
     75.6912    
     77.5730    
     80.2300    
     79.0084    
     83.2188    
     71.9140    
     81.5509    
     85.7600    
     82.9873    
     79.4380    
     79.7682    
     78.5469    
     80.4284    
     82.3102    
     81.0887    
     84.5222    
     77.0963    
     87.5106    
     86.2884    
     88.1707    
     83.8457    
     80.2974    
     87.6085    
     90.2660    
     87.4925    
     83.9441    
     83.4975    
     86.9304    
     84.9339    
     89.9181    
     92.5755    
     89.8019    
     92.4600    
     92.7899    
     97.7768    
     95.0001    
     97.6590    
     97.2133    
     98.3186    
     98.6484    
     99.7556    
    100.8610    
     95.7580    
     95.3106    
    104.1801    
    103.7331    
    104.0628    
    106.7228    
    103.9464    
    108.1581    
    110.0416    
    108.8173    
    109.1469    
    108.7005    
    102.8180    
    107.0294    
    110.4652    
    109.2420    
    106.4647    
    107.5718    
    105.5707    
    109.7832    
    109.3360    
    103.4547    
    102.2319    
    100.2342    
    104.4431    
    101.6690    
    105.1019    
    103.1038    
    101.8812    
    102.9865    
    106.4193    
    103.6452    
    102.4227    
    101.9770    
    104.6331    
    109.6185    
    111.4996    
    113.3819    
    106.7262    
    109.3829    
    104.2819    
    110.0413    
    108.8182    
    110.6997    
    107.1494    
    110.5828    
    112.4625    
    107.3610    
    112.3454    
    110.3471    
    111.4513    
    111.0052    
    115.9907    
    115.5434    
    115.8724    
    110.7695    
    114.9779    
    114.5317    
    120.2934    
    116.7402    
    118.6228    
    118.1754    
    120.0562    
    122.7157    
    125.3738    
    117.9385    
    124.4781    
    123.2537    
    125.1358    
    125.4647    
    125.0178    
    129.2287    
    128.7815    
    130.6641    
    134.8776    
    128.2142    
    133.2027    
    131.9792    
    141.6341    
    141.9628    
    143.0683    
    144.9526    
    148.3932    
    152.6121    
    160.7266    
    158.7186    
    156.7121    
    157.0407    
    159.7045    
    164.7060    
    168.9311    
    166.1423    
    164.9135    
    163.6840    
    163.2336    
    166.6773    
    173.2399    
    167.3343    
    167.6628    
    162.5405    
    171.4359    
    170.9859    
    173.6516    
    175.5391    
    171.9711    
    176.1959    
    181.9822    
    182.3105    
    188.8801    
    189.2084    
    197.3438    
    205.4851    
    216.7609    
    222.5664    
    240.1306    
    255.3682    
    276.9194    
    312.7171    
    352.5988    
    408.5574    
    496.1105    
    612.0016    
    744.8270    
    905.2579    
   1066.5105    
   1223.4114    
   1369.5980    
   1487.7598    
   1568.8822    
   1600.4541    
   1582.0245    
   1520.0721    
   1439.9927    
   1340.4655    
   1243.6213    
   1131.4397    
   1026.3872    
    931.6107    
    855.9806    
    790.8174    
    737.5697    
    690.3262    
    658.7880    
    636.2986    
    625.2368    
    620.6873    
    633.2134    
    657.1652    
    690.9846    
    748.7455    
    821.7313    
    907.7554    
    994.4973    
   1076.0215    
   1170.1803    
   1246.1896    
   1306.2499    
   1344.8479    
   1347.7906    
   1326.3511    
   1275.4875    
   1207.6661    
   1141.1459    
   1067.4177    
   1006.0154    
    956.7189    
    946.1447    
    969.1277    
   1039.4130    
   1166.5298    
   1358.6979    
   1655.4319    
   2061.2537    
   2517.7395    
   3008.5938    
   3522.8293    
   4044.7307    
   4542.0215    
   4941.5898    
   5209.3179    
   5297.3599    
   5258.1870    
   5135.8843    
   4979.0610    
   4824.5928    
   4668.8052    
   4552.0918    
   4466.0884    
   4421.7612    
   4393.9849    
   4331.3560    
   4188.5532    
   3975.5911    
   3750.4500    
   3539.8086    
   3356.6282    
   3217.2593    
   3115.8467    
   3060.5393    
   3049.5696    
   3093.0950    
   3160.6350    
   3239.0627    
   3342.3403    
   3481.9053    
   3613.6145    
   3708.6633    
   3777.0269    
   3840.3015    
   3881.6965    
   3906.5198    
   3903.5032    
   3826.1135    
   3673.8315    
   3480.8967    
   3270.5291    
   3065.3999    
   2878.3933    
   2705.6299    
   2536.6973    
   2404.1626    
   2342.0457    
   2298.4080    
   2283.4866    
   2276.1990    
   2274.6213    
   2261.6370    
   2235.3926    
   2171.4724    
   2080.8376    
   1967.8855    
   1844.2937    
   1728.4844    
   1635.4020    
   1584.8896    
   1608.3759    
   1697.3621    
   1851.7303    
   2049.2932    
   2271.5879    
   2512.3738    
   2735.9927    
   2891.6099    
   2926.3142    
   2841.9143    
   2627.5098    
   2363.6328    
   2116.6389    
   1825.2418    
   1521.5079    
   1278.1344    
   1107.2368    
    975.9504    
    925.2664    
    950.6490    
   1050.1224    
   1227.5693    
   1514.4030    
   1864.0692    
   2264.8186    
   2711.4189    
   3217.6592    
   3742.2874    
   4248.8350    
   4641.9185    
   4862.0522    
   4939.5688    
   4904.2915    
   4746.5063    
   4479.9448    
   4140.1304    
   3790.2332    
   3505.1938    
   3274.8135    
   3110.0623    
   2997.7097    
   2944.1799    
   2929.3149    
   2946.8589    
   2973.5757    
   2961.7139    
   2901.3132    
   2806.2129    
   2688.2358    
   2567.6890    
   2470.7764    
   2385.3240    
   2309.1479    
   2253.4146    
   2232.9148    
   2228.5127    
   2207.1218    
   2163.2090    
   2057.0142    
   1898.6749    
   1695.9551    
   1473.4020    
   1250.3979    
   1025.3888    
    815.0745    
    631.6145    
    488.0271    
    390.6138    
    327.8615    
    280.3475    
    248.6433    
    229.4867    
    211.9222    
    201.3730    
    186.9575    
    177.2089    
    172.8898    
    170.8930    
    165.8032    
    159.9420    
    161.0402    
    162.9127    
    162.4642    
    166.6576    
    166.2106    
    163.4415    
    159.1289    
    163.3205    
    169.8337    
    176.3506    
    175.9012    
    192.4957    
    212.9980    
    249.1184    
    305.7204    
    392.6194    
    477.8606    
    565.4111    
    676.4250    
    798.4946    
    940.3314    
   1080.7549    
   1213.6887    
   1316.3284    
   1406.9077    
   1507.9603    
   1606.4492    
   1676.3170    
   1715.1812    
   1723.5924    
   1724.8167    
   1721.5474    
   1695.8522    
   1628.2947    
   1515.2909    
   1377.4183    
   1240.5137    
   1113.0260    
    975.3943    
    834.6351    
    706.3540    
    596.5546    
    511.0544    
    445.2935    
    393.3679    
    352.7120    
    322.4068    
    309.4094    
    310.5171    
    317.1105    
    330.7684    
    354.6634    
    375.4589    
    399.4547    
    407.6825    
    407.2161    
    390.9558    
    364.4824    
    338.0792    
    302.3524    
    265.9703    
    225.8350    
    191.2745    
    169.9520    
    147.9030    
    128.9792    
    115.4690    
    111.1861    
    107.6719    
    107.9969    
    105.2516    
    102.5081    
    104.3677    
    105.4591    
    106.5514    
    106.1089    
    107.2013    
    107.5262    
    105.5490    
    111.2462    
    109.2692    
    112.6628    
    113.7554    
    110.2438    
    118.2438    
    119.3377    
    128.8825    
    126.1333    
    125.6886    
    133.7016    
    136.3331    
    145.8915    
    151.6075    
    155.7830    
    165.3589    
    174.9421    
    186.0793    
    190.2689    
    196.7797    
    203.2941    
    208.2633    
    208.5879    
    212.0088    
    209.2371    
    208.0130    
    201.3721    
    201.6967    
    200.4738    
    191.5203    
    185.6639    
    180.5822    
    177.8206    
    174.2865    
    168.4410    
    161.8286    
    154.4527    
    154.7771    
    148.9440    
    142.3446    
    136.5202    
    129.1624    
    128.7197    
    122.9030    
    126.2961    
    128.9239    
    118.5049    
    123.4320    
    126.0581    
    132.5243    
    135.9223    
    137.7815    
    141.9486    
    143.8104    
    156.4415    
    162.1535    
    168.6398    
    168.9640    
    166.9776    
    168.0713    
    175.3322    
    168.7197    
    169.0438    
    163.9778    
    162.7618    
    162.3169    
    164.1810    
    163.7341    
    158.6716    
    159.7644    
    156.2410    
    153.4900    
    150.7371    
    147.9879    
    144.4693    
    136.3456    
    140.5090    
    143.1365    
    143.4604    
    146.8567    
    147.9501    
    159.8050    
    164.7451    
    175.8484    
    185.4223    
    190.3734    
    202.2740    
    212.6429    
    230.7607    
    241.9310    
    258.5470    
    272.8547    
    274.7338    
    284.3921    
    299.5130    
    302.1756    
    304.8377    
    318.4257    
    320.3112    
    324.5396    
    320.1777    
    313.4774    
    314.5806    
    311.7839    
    312.1076    
    314.7722    
    314.3145    
    318.5405    
    325.1101    
    334.0274    
    342.9528    
    358.1498    
    371.8000    
    377.6149    
    392.0753    
    391.6129    
    398.2251    
    400.1216    
    402.0184    
    418.8717    
    432.5970    
    452.6597    
    479.8906    
    507.9854    
    536.9518    
    574.7898    
    600.7349    
    627.5456    
    645.5643    
    650.7200    
    651.0434    
    652.1714    
    648.4683    
    637.5252    
    625.7917    
    621.2961    
    622.4216    
    632.3859    
    646.3824    
    673.3013    
    718.1031    
    771.2393    
    828.7412    
    911.3015    
   1004.5139    
   1103.6154    
   1207.0676    
   1327.8776    
   1455.3297    
   1587.8904    
   1708.7810    
   1831.9969    
   1932.0646    
   2019.3104    
   2083.2297    
   2109.4719    
   2118.1389    
   2104.5586    
   2076.2046    
   2035.9611    
   1982.1368    
   1922.2240    
   1851.8070    
   1775.5905    
   1692.8145    
   1601.8762    
   1504.7449    
   1399.8704    
   1303.7653    
   1200.9138    
   1104.1243    
   1014.0697    
    928.1039    
    853.5099    
    779.4562    
    722.9276    
    670.7400    
    638.0764    
    607.1204    
    603.4393    
    611.7706    
    637.7610    
    667.8433    
    731.1811    
    804.6962    
    899.3029    
    980.6573    
   1072.6962    
   1153.7339    
   1209.0674    
   1251.9063    
   1260.7537    
   1244.0350    
   1188.3180    
   1114.3932    
   1025.9825    
    920.9879    
    832.5861    
    746.5623    
    676.5507    
    627.0411    
    593.7424    
    583.6797    
    591.9907    
    603.5056    
    626.2493    
    653.8619    
    689.6111    
    718.2000    
    745.2433    
    766.6691    
    772.6804    
    784.3900    
    790.4107    
    789.1054    
    788.6136    
    785.6797    
    800.6616    
    814.0320    
    829.8697    
    844.9122    
    855.8799    
    866.0375    
    859.8016    
    842.1107    
    799.9805    
    753.9681    
    702.5131    
    648.9061    
    597.9750    
    552.8635    
    514.2880    
    495.6120    
    487.2376    
    504.9594    
    527.4689    
    548.4360    
    572.6312    
    591.2935    
    609.9874    
    623.1100    
    611.4323    
    590.1876    
    557.8472    
    517.6836    
    479.2567    
    433.8995    
    384.0503    
    330.5532    
    293.5997    
    259.8707    
    235.4992    
    212.7239    
    190.0001    
    175.7525    
    166.1191    
    157.2584    
    147.6425    
    137.2726    
    132.2528    
    121.8996    
    120.6971    
    117.9718    
    110.6783    
    104.9129    
     99.1503    
     94.1503    
     89.9137    
     90.9953    
     86.7603    
     87.8416    
     82.8491    
     80.8938    
     83.4927    
     80.7793    
     73.5158    
     74.5950    
     74.1593    
     77.5139    
     76.3195    
     72.8497    
     71.6551    
     70.4608    
     72.2985    
     71.8630    
     71.4257    
     67.9602    
     65.2515    
     66.3306    
     69.6818    
     66.9738    
     62.7514    
     59.2896    
     61.8812    
     58.4190    
     61.7672    
     58.3053    
     53.3320    
     53.6535    
     56.2434    
     62.6177    
     60.6695    
     58.7209    
     59.0423    
     57.0950    
     55.9037    
     60.7632    
     58.0593    
     59.1362    
     56.4329    
     60.5355    
     60.8568    
     60.4216    
     56.9621    
     54.2598    
     56.0933    
     56.4146    
     54.4677    
     56.3001    
     52.8427    
     51.6534    
     52.7294    
     54.5622    
     54.1276    
     49.9161    
     52.5030    
     53.5807    
     53.9019    
     48.9347    
     52.2774    
     50.3332    
     46.1233    
     53.2408    
     52.8064    
     45.5776    
     50.4282    
     44.7101    
     43.5217    
     52.9020    
     48.6920    
     45.2395    
     43.2975    
     45.8816    
     48.4670    
     44.2605    
     48.3532    
     40.3760    
     38.4345    
     42.5265    
     45.8653    
     45.4308    
     39.7183    
     46.0726    
     45.6399    
     48.2235    
     44.7729    
     45.8472    
     44.6603    
     46.4889    
     49.8278    
     49.3949    
     50.4694    
     46.2644    
     48.8483    
     50.6781    
     49.4898    
     49.0552    
     47.8682    
     42.1572    
     46.2479    
     45.8136    
     46.8893    
     42.6862    
     46.0225    
     43.3276    
     41.3871    
     46.9845    
     47.3051    
     44.6101    
     44.1769    
     45.2513    
     44.0653    
     45.8925    
     41.6922    
     47.2874    
     45.3476    
     47.9285    
     51.2640    
     47.8157    
     45.8751    
     46.1956    
     46.5161    
     46.0838    
     47.9116    
     46.7247    
     42.5256    
     40.5865    
     41.6601    
     43.4869    
     44.5596    
     42.6213    
     40.6825    
     41.0028    
     45.0887    
     43.1496    
     44.9762    
     46.0497    
     41.0986    
     48.1969    
     45.5042    
     44.3183    
     47.6512    
     44.2059    
     47.5384    
     48.6119    
     48.9321    
     46.9928    
     44.3012    
     48.3863    
     46.4474    
     43.7570    
     49.3469    
     46.6558    
     46.2221    
     49.5542    
     45.3577    
     44.9250    
     45.2451    
     41.8024    
     43.6274    
     44.7010    
     47.2781    
     43.8360    
     46.4128    
     45.9811    
     44.7961    
     50.3830    
     45.4360    
     47.2611    
     43.8188    
     47.1475    
     45.9625    
     44.7786    
     46.6024    
     46.9223    
     49.5006    
     43.0494    
     46.3781    
     48.9552    
     41.7539    
     45.8332    
     42.3936    
     44.9686    
     42.2813    
     43.3530    
     43.6728    
     42.4898    
     45.8164    
     43.1293    
     46.4559    
     44.5197    
     46.3433    
     50.4228    
     46.2308    
     47.3025    
     49.1253    
     46.4380    
     45.2540    
     48.5812    
     46.6460    
     50.7236    
     48.0362    
     52.1159    
     48.6754    
     46.7405    
     47.0601    
     45.8764    
     46.9467    
     47.2662    
     46.0835    
     45.6515    
     42.9663    
     44.7885    
     42.1029    
     46.1780    
     44.2443    
     48.3199    
     48.6394    
     45.9531    
     45.5221    
     48.0947    
     47.6636    
     48.7335    
     43.7951    
     46.3679    
     45.9360    
     47.7579    
     44.3215    
     41.6382    
     39.7063    
     41.5261    
     45.5988    
     46.6691    
     40.9835    
     48.8099    
     40.8705    
     43.4417    
     46.7643    
     41.8283    
     42.8990    
     46.2202    
     46.5394    
     49.1105    
     47.9278    
     46.7462    
     41.0617    
     45.1333    
     48.4544    
     48.0227    
     51.3445    
     47.9102    
     48.2293    
     47.0479    
     45.8659    
     43.9336    
     44.2527    
     43.0712    
     43.3902    
     42.2088    
     41.0286    
     46.5982    
     45.4165    
     41.9856    
     45.3042    
     47.1237    
     43.6925    
     49.2624    
     45.0796    
     47.6491    
     47.9680    
     48.2869    
     47.8556    
     44.4248    
     43.9937    
     45.0625    
     49.8813    
     47.9495    
     43.7694    
     43.3393    
     39.9100    
     43.2263    
     45.7953    
     41.6159    
     45.6821    
     43.0030    
     43.3217    
     44.3900    
     42.4601    
     41.2799    
     43.8470    
     45.6649    
     43.7349    
     48.5505    
     47.3696    
     44.6908    
     46.5085    
     46.8272    
     46.3962    
     49.7134    
     46.2839    
     47.3520    
     46.9211    
     47.2396    
     46.0593    
     46.3779    
     46.6964    
     46.2665    
     46.5850    
     43.9076    
     41.2301    
     44.5445    
     46.3604    
     44.4315    
     48.4958    
     42.8224    
     50.6314    
     46.4552    
     46.0236    
     47.0920    
     48.1586    
     49.9754    
     45.7992    
     48.3655    
     50.1812    
     51.9981    
     48.5705    
     45.8940    
     49.2071    
     46.5306    
     44.6035    
     47.9160    
     42.2458    
     46.3061    
     44.3793    
     47.6913    
     47.2608    
     43.8370    
     42.6584    
     42.9766    
     44.0431    
     44.3613    
     44.6794    
     46.4945    
     45.3157    
     45.6338    
     48.1974    
     51.5092    
     54.8228    
     51.3967    
     50.9669    
     50.5355    
     47.8604    
     48.9269    
     48.4965    
     50.3114    
     45.3922    
     47.9539    
     46.0281    
     47.0934    
     44.4200    
     45.4859    
     48.7964    
     46.1218    
     44.9447    
     45.2626    
     41.8417    
     45.8985    
     50.7038    
     48.0292    
     50.5905    
     50.1611    
     48.9828    
     47.8056    
     49.6185    
     51.4324    
     50.2541    
     52.0680    
     50.1417    
     50.4595    
     49.2814    
     48.1045    
     48.4222    
     48.7400    
     50.5524    
     49.3754    
     45.2076    
     46.2737    
     42.1084    
     44.6668    
     44.2372    
     43.8076    
     44.8725    
     44.4429    
     49.9914    
     48.8148    
     49.8790    
     48.7017    
     44.5366    
     50.0852    
     49.6544    
     47.7308    
     50.2895    
     51.3554    
     50.9245    
     49.0009    
     52.3079    
     49.6359    
     52.9428    
     48.7773    
     46.8527    
     44.9303    
     45.2478    
     48.5529    
     51.1108    
     46.9469    
     47.2643    
     50.5687    
     50.1399    
     51.9515    
     50.7746    
     51.8381    
     48.4216    
     51.7266    
     49.0562    
     50.1204    
     51.9306    
     54.4900    
     53.3131    
     55.1245    
     51.7067    
     46.7981    
     47.8618    
     48.9256    
     51.4820    
     49.5600    
     53.6100    
     47.2093    
     45.2867    
     47.8436    
     48.1608    
     46.9853    
     47.3024    
     46.1270    
     48.6820    
     50.4919    
     53.7943    
     48.8879    
     49.2050    
     47.2834    
     51.3317    
     55.3796    
     49.7260    
     53.0284    
     49.6147    
     51.4242    
     50.9940    
     52.8035    
     51.6279    
     51.1996    
     53.0090    
     52.5788    
     49.1670    
     49.4839    
     45.3261    
     50.8628    
     51.1797    
     47.0224    
     45.8480    
     44.6738    
     47.9730    
     51.2721    
     48.6066    
     51.1607    
     53.7145    
     53.2862    
     51.3653    
     55.4109    
     54.9816    
     54.5532    
     54.8700    
     49.2217    
     52.5200    
     58.0574    
     50.9165    
     51.9788    
     46.3339    
     50.3755    
     49.2022    
     48.0282    
     50.5809    
     44.9367    
     48.2338    
     47.8043    
     50.3566    
     48.4375    
     45.7748    
     49.8167    
     50.1333    
     50.4498    
     51.5107    
     47.3576    
     52.1438    
     50.2257    
     50.5422    
     55.3293    
     52.6654    
     50.0015    
     53.2984    
     55.1045    
     53.9313    
     49.7774    
     46.3710    
     52.6452    
     51.4716    
     49.5543    
     49.1250    
     48.6976    
     52.7371    
     51.5637    
     54.1148    
     52.9412    
     51.0231    
     52.0851    
     49.4227    
     48.9944    
     50.7999    
     59.3093    
     58.1352    
     53.9827    
     53.5533    
     53.1258    
     56.4202    
     53.7582    
     49.6082    
     49.9244    
     51.7294    
     54.2783    
     48.6401    
     49.7005    
     49.2724    
     51.8214    
     49.9047    
     51.7084    
     49.0486    
     51.5972    
     46.7058    
     49.9969    
     46.5941    
     49.1409    
     50.9450    
     52.0052    
     51.5771    
     52.6372    
     51.4659    
     49.5501    
     48.3784    
     50.9259    
     54.9613    
     58.2535    
     56.3374    
     51.4458    
     54.7368    
     54.3095    
     54.6254    
     57.9170    
     55.2572    
     51.1108    
     52.1695    
     53.2291    
     55.0327    
     52.3741    
     49.7156    
     54.4924    
     54.8082    
     56.6117    
     55.4398    
     55.0118    
     50.8668    
     54.1559    
     58.1905    
     62.2257    
     57.3343    
     56.9062    
     54.9918    
     56.7948    
     60.8279    
     56.6815    
     58.4846    
     55.0830    
     53.1684    
     51.9975    
     56.7726    
     55.6021    
     53.6885    
     51.0314    
     52.0901    
     53.1488    
     51.9781    
     51.5507    
     51.1232    
     54.4110    
     56.2130    
     59.5011    
     54.6144    
     59.3887    
     54.5023    
     58.5329    
     59.5917    
     61.3940    
     59.4792    
     53.1086    
     54.1661    
     64.8856    
     60.7409    
     64.7736    
     57.6566    
     58.7151    
     53.8308    
     57.8597    
     54.4615    
     59.9765    
     60.2918    
     59.1210    
     52.0098    
     57.5237    
     55.6107    
     58.1543    
     56.9839    
     61.0127    
     63.5572    
     58.6716    
     61.2154    
     61.5307    
     59.6172    
     61.4181    
     60.2476    
     55.3663    
     60.1361    
     61.1931    
     56.3118    
     57.3685    
     59.1687    
     53.5457    
     62.7688    
     55.6604    
     57.4601    
     64.4578    
     69.2300    
     71.0315    
     60.2043    
     51.6152    
     57.8658    
     54.4710    
     61.4644    
     54.3591    
     54.6741    
     56.4722    
     57.5301    
     53.3943    
     57.4171    
     62.1853    
     59.5311    
     54.6540    
     58.6768    
     56.0248    
     61.5330    
     65.5587    
     59.9363    
     63.9621    
     58.3410    
     59.3978    
     61.1957    
     68.9328    
     65.5363    
     64.3666    
     62.4550    
     58.3193    
     59.3767    
     69.3365    
     73.3643    
     77.3926    
     69.5392    
     67.6269    
     76.1088    
     72.7100    
     71.5396    
     68.8857    
     66.2318    
     63.5795    
     59.4450    
     50.8662    
     60.0743    
     63.3546    
     61.4451    
     63.2430    
     67.2657    
     70.5476    
     69.3780    
     65.9848    
     69.2660    
     65.1304    
     59.5141    
     65.7595    
     58.6608    
     55.2703    
     55.5848    
     58.8632    
     59.9188    
     60.2333    
     64.2532    
     74.9509    
     79.7183    
     76.3220    
     78.8633    
     68.0499    
     70.5884    
     70.9028    
     72.7007    
     69.3075    
     62.9507    
     60.3012    
     60.6155    
     60.1899    
     64.9492    
     69.7105    
     70.0248    
     74.7888    
     71.3949    
     73.9339    
     78.6983    
     73.0792    
     68.9459    
     69.2601    
     67.3509    
     75.0769    
     70.9432    
     66.8114    
     58.2394    
     62.2560    
     72.9422    
     63.6241    
     63.1984    
     64.2523    
     64.5665    
     70.0666    
     63.7135    
     62.5475    
     71.7491    
     71.3230    
     75.3411    
     70.4691    
     70.7832    
     71.8373    
     67.7073    
     69.5028    
     72.7794    
     70.8716    
     68.9633    
     72.2395    
     71.8136    
     74.3493    
     79.8515    
     74.2372    
     71.5878    
     71.9018    
     76.6609    
     76.9749    
     73.5842    
     76.1207    
     72.7306    
     73.7851    
     75.5806    
     78.8581    
     80.6533    
     75.0405    
     76.0951    
     74.1877    
     79.6854    
     79.2591    
     79.5729    
     79.8867    
     92.0604    
     86.4424    
     92.6879    
     89.2934    
     84.4187    
     84.7324    
     85.0461    
     83.1366    
     78.2665    
     82.2821    
     73.7108    
     92.5445    
     89.8931    
     77.6132    
     80.1484    
     73.0594    
     68.9344    
     72.9466    
     74.0002    
     72.8338    
     74.6274    
     69.7626    
     75.2545    
     74.8280    
     77.3619    
     69.5374    
     75.7686    
     83.4833    
     85.2780    
     86.3322    
     82.2032    
     82.5166    
     86.5319    
     81.6620    
     81.9754    
     81.5495    
     81.8629    
     82.1763    
     84.7107    
     79.8434    
     72.0215    
     73.8121    
     67.4734    
     66.3087    
     74.7521    
     74.3268    
     73.1613    
     74.2149    
     75.2668    
     82.9768    
     84.7694    
     85.8237    
     86.8763    
     84.9700    
     84.5432    
     90.0370    
     83.6897    
     74.3902    
     74.7034    
     77.2336    
     77.5468    
     82.2973    
     71.5225    
     77.7478    
     75.8432    
     77.6348    
     78.6873    
     82.6969    
     91.8873    
     90.7201    
     82.8958    
     85.4286    
     83.5219    
     81.6174    
     74.5410    
     80.7658    
     81.8181    
     77.6969    
     75.0534    
     74.6285    
     71.9878    
     70.0862    
     68.9225    
     72.1882    
     74.7160    
     73.5526    
     77.5572    
     82.3049    
     85.5738    
     83.6690    
