  11100 11  1   BR261    PO     BMW  .000 U S1 042793 00.01   1        
  PROGRAM LAMBDA-9   VERSION 02.31                                     
  USER BMW DATE & TIME  1993 04 27 04.07 00.00    4.9200    295K S     
 AU1 HO  44     0     0 YLF              .320000 -  .435000 .00010     
 FILE NAME                                ON PC = BR261.SP             
 NO_POINTS  =  1151.    pts   DATA_INTV =  .000100 æm                  
 MIN_LAMBDA =   .320000 æm     MIN_DATA =    .71030                    
 MAX_LAMBDA =   .435000 æm     MAX_DATA =    .92530                    
 SCANSPEED  = 15.000000 NM/MIN SLITWIDTH=   .20000 NM                  
  RESP TIME =   .5      sec SENSITIVITY = 5          DATE=93/04/27     
 OSU SAMPLE--CONC CORRECTED .44%                                       
  This spectra is part of Database LASERS
 Database LASERS was created by Pat Cross working 
 at NASA Langley Research Center, Internal Operations Group,
 Aerospace Electronics Systems Division, Remote Sensing 
 Technology Branch. phone:(757)864-1633   fax:(757)864-7894 
     e-mail p.l.cross@larc.nasa.gov 
     homepage http://aesd.larc.nasa.gov/laser/dbmain.htm
  EOH     (1X,F11.4)                                                   
  1151.         
     13.2350    
    147.4572    
      0.0000    
      0.0000    
    241.9783    
      0.0000    
    517.3124    
    554.2360    
      0.0000    
    183.0995    
      0.0000    
    313.2241    
     56.2979    
    226.6922    
      0.0000    
      0.0000    
     53.5294    
    306.4492    
      0.0000    
      3.9776    
      0.0000    
      0.0000    
      0.0000    
    761.4241    
    522.7767    
      0.0000    
    513.5839    
      0.0000    
    163.4393    
    215.5256    
    443.3907    
     72.6539    
    279.1659    
    336.5414    
    471.6396    
    183.0009    
     19.1253    
    148.1496    
    801.5517    
    169.9072    
    651.6548    
    310.2554    
    259.2467    
    125.9523    
    208.8813    
      0.0000    
      0.0000    
    184.8892    
     26.1604    
      0.0000    
     11.9421    
    120.3533    
      0.0000    
    291.4752    
    101.5475    
     19.9895    
      0.0000    
    144.4238    
      0.0000    
      0.0000    
      0.0000    
    585.9834    
      0.0000    
     34.9137    
      0.0000    
      0.0000    
    500.7135    
    433.9742    
    766.9220    
    710.2098    
      0.0000    
    363.9105    
      0.0000    
    696.9154    
    438.0385    
     98.3530    
    402.9901    
    377.7259    
    383.4709    
    689.9877    
    539.9376    
      0.0000    
    164.0851    
    200.6816    
     26.5772    
    522.0909    
    357.1001    
      0.0000    
    643.1949    
    338.1773    
     50.5590    
    541.1064    
      0.0000    
    599.3304    
    186.4446    
      0.0000    
    131.0367    
    100.7872    
    173.3150    
    184.1801    
    525.5530    
    614.3207    
    288.9109    
      0.0000    
    145.9143    
      0.0000    
    508.2731    
    163.0585    
     35.2665    
    174.4919    
   1278.4359    
    958.8199    
    631.0175    
    745.9957    
   1407.3129    
   1297.1031    
   1134.6213    
   1652.6276    
   1277.7473    
    937.2497    
    729.1769    
    734.9537    
   1454.1599    
    710.0771    
   1107.7008    
   1055.8329    
    967.3939    
   1198.6943    
   1871.7819    
   1643.5513    
   1289.8623    
    917.9614    
   1175.2666    
   1746.7877    
   1418.7249    
    732.5216    
   1051.6141    
   1394.0284    
    968.9924    
   1474.4131    
   1316.6196    
    965.4651    
   1333.5690    
    752.6815    
    137.9098    
    514.9783    
    869.0428    
    624.9913    
    227.5810    
    212.7113    
    761.8512    
   1023.4576    
    101.3651    
    649.1558    
    691.2863    
    764.6790    
      0.0000    
    206.9452    
      0.0000    
    151.5305    
    182.9304    
    529.2057    
      0.0000    
    241.2041    
    634.5970    
    129.2371    
    687.6642    
    429.1196    
    481.3874    
    172.5830    
     14.1116    
    369.3993    
      0.0000    
    298.3303    
      0.0000    
    495.6702    
    207.3607    
    372.7705    
    383.6531    
    348.0953    
      0.0000    
      0.0000    
      0.0000    
    645.2744    
      0.0000    
    397.9041    
      0.0000    
     85.1477    
      0.0000    
    194.0815    
    535.1372    
    174.6440    
      0.0000    
    485.0599    
      0.0000    
    315.8088    
    331.8289    
    741.4350    
    389.6847    
    359.2830    
    128.3203    
      5.8733    
    412.5651    
    485.4691    
    403.3515    
    579.7676    
    301.3325    
    132.2194    
    622.9105    
    112.8079    
    277.8089    
    371.1232    
    299.5177    
    372.2344    
    254.2971    
    756.6528    
    353.2708    
    101.8655    
    364.6955    
    133.7525    
    113.7852    
    510.9879    
    718.9449    
    990.5202    
   1100.9774    
    642.7207    
    482.7277    
   1018.8796    
    344.4541    
    639.7452    
    801.3895    
    947.9261    
    786.8782    
    912.4918    
    814.0102    
   1554.6010    
   1286.1084    
   1260.3662    
   1545.6742    
   1219.4344    
   1005.1422    
   1273.0887    
   2283.6672    
   3163.1938    
   2279.3938    
   2226.2378    
   1618.8989    
   1513.6200    
   1545.8949    
   1625.8446    
   1309.6014    
   1452.4412    
    756.2880    
    819.2662    
    307.2678    
    882.8808    
    313.5155    
    391.3646    
    360.9775    
    557.8079    
   1152.2626    
      0.0000    
   1053.8419    
    845.5805    
    684.9492    
    261.8416    
    941.0703    
    681.4005    
    749.4620    
    979.2590    
   1447.0212    
   1632.6094    
   1437.5645    
   1002.3429    
    966.3250    
    872.9814    
    831.8591    
    603.9022    
   1104.4650    
    927.3007    
    285.4673    
    280.8672    
    430.8315    
   1002.5719    
    400.9681    
    200.8133    
    134.6532    
    304.7162    
    320.7014    
      0.0000    
      0.0000    
    260.5963    
    451.7578    
    225.7091    
    597.6191    
     72.9381    
     37.6544    
    371.9495    
     89.9290    
     34.1657    
    255.2032    
      0.0000    
    607.1399    
      0.0000    
    561.6355    
    427.8475    
    155.7691    
    320.7188    
    341.8527    
    337.2440    
    270.8992    
    575.7722    
    664.3740    
     67.3325    
      0.0000    
    381.6960    
   1015.2488    
    444.6544    
      0.0000    
     60.3355    
    224.9185    
    261.4201    
    571.3643    
    221.4003    
    412.3237    
    666.2077    
    418.5586    
    553.3668    
    776.8254    
    368.6365    
    710.3920    
    277.0887    
   1086.6046    
    629.0559    
    206.7896    
    816.9821    
      0.0000    
    786.8602    
    414.6988    
    353.4127    
    601.7459    
    323.6026    
    175.1715    
    842.0854    
    459.1819    
    356.6316    
    786.4944    
   1209.8927    
    922.8763    
    944.2648    
    840.6328    
    815.1614    
    267.7980    
    712.3570    
    495.5107    
    775.7254    
    568.9269    
   1157.5903    
    668.3607    
   1242.5439    
    627.9883    
   1248.8577    
   1296.6500    
   1444.5146    
   1592.8505    
   2044.9923    
   2286.4094    
   1864.8848    
   2583.6082    
   2068.4866    
   2277.8101    
   2016.1650    
   2862.0410    
   3184.2898    
   2640.8496    
   2690.0796    
   2544.6755    
   2864.7019    
   2116.0269    
   2665.1460    
   3078.7063    
   3391.4502    
   3839.3127    
   4623.3745    
   4219.2871    
   4918.8828    
   5681.1636    
   5284.9321    
   5480.5439    
   6187.9263    
   5712.1699    
   4910.7070    
   5638.1680    
   5230.8940    
   5334.4707    
   5530.2720    
   4709.3599    
   3908.3508    
   3797.8789    
   3533.0842    
   4514.0044    
   6147.5962    
   7671.9434    
   8419.9492    
   8285.8906    
   8249.7832    
   7331.7251    
   7392.1274    
   7386.6670    
   8075.2227    
   8063.5928    
   9339.9102    
   9798.8936    
  11072.7910    
  11183.7432    
  10269.8994    
   8777.3447    
   7595.5425    
   7027.9502    
   6046.4077    
   4982.8506    
   5045.9663    
   4875.9927    
   4335.1157    
   4543.5547    
   3834.3000    
   4235.8828    
   3868.6392    
   3963.6123    
   4891.0186    
   4586.1484    
   5113.8970    
   3705.0601    
   2764.0540    
   2247.3003    
   2473.4214    
   1927.9679    
   2029.7074    
   2195.8472    
   2583.3362    
   2341.6260    
   2406.6223    
   2326.5706    
   1947.6021    
   1709.2046    
   1466.7704    
    974.7520    
    912.7759    
   1447.2731    
   1248.1431    
    556.5938    
    940.8976    
   1134.5146    
    926.3223    
    465.8116    
    766.2606    
    575.2248    
    611.9263    
    731.5253    
    530.3169    
   1201.4911    
   1066.0558    
    899.7945    
    895.1127    
    812.4786    
    291.4985    
    343.3907    
    622.3117    
    359.8546    
    649.2172    
    696.3258    
    397.4223    
    284.8736    
    305.9315    
    357.8342    
    579.9561    
    189.5278    
    679.2534    
    437.0961    
    463.3729    
    268.5031    
    110.2382    
    310.6077    
    666.8416    
      0.0000    
      0.0000    
    343.5082    
      0.0000    
      0.0000    
     17.3363    
    608.4099    
     38.7877    
      0.0000    
     34.7212    
     30.1342    
      0.0000    
      0.0000    
      0.0000    
    113.9340    
    119.5651    
    402.1747    
    269.1239    
      0.0000    
      0.0000    
      0.0000    
    271.1907    
    184.5839    
      0.0000    
      0.0000    
      0.0000    
    407.3395    
     23.6109    
      0.0000    
      0.0000    
      0.0000    
    384.2006    
      0.0000    
      0.0000    
      0.0000    
    340.0099    
    289.1847    
    382.1485    
      0.0000    
      0.0000    
      0.0000    
    445.9431    
      0.0000    
      1.2459    
    401.1776    
     58.3931    
      0.0000    
      0.0000    
    382.6651    
     65.5536    
    409.4004    
      0.0000    
     31.3696    
    508.7704    
    607.3217    
      0.0000    
      0.0000    
      8.4323    
      0.0000    
      0.0000    
    388.8197    
    153.4670    
    410.4114    
     72.7310    
    509.2519    
      0.0000    
      0.0000    
    712.2238    
    588.6709    
      0.0000    
    465.9614    
    916.5912    
    297.3894    
      0.0000    
      0.0000    
    659.4107    
    191.8331    
      0.0000    
    285.0671    
     34.9811    
    234.8360    
      0.0000    
    287.1077    
      0.0000    
      0.0000    
    742.1243    
    758.1719    
     28.8616    
      0.0000    
    568.4240    
     71.2017    
      0.0000    
    333.2454    
      0.0000    
      0.0000    
     63.5380    
      0.0000    
    469.4278    
     34.4590    
      0.0000    
      0.0000    
    440.5869    
     31.3917    
    974.5018    
    144.7141    
      0.0000    
      0.0000    
      0.0000    
    192.7679    
      0.0000    
      0.0000    
      0.0000    
     82.3777    
    606.4162    
     78.2870    
    365.4560    
      0.0000    
      0.0000    
    588.3087    
      0.0000    
    122.1692    
      0.0000    
     36.4334    
      0.0000    
      0.0000    
      2.2780    
    700.8337    
    294.5709    
    614.0069    
    692.0059    
   1008.9958    
    739.5760    
    817.7831    
    395.1031    
   1439.8992    
   1556.1515    
    824.9846    
   1085.4717    
    572.6230    
   1410.9055    
   1469.2078    
    435.1128    
    538.5570    
      0.0000    
      0.0000    
    155.2264    
    628.2496    
    330.2966    
    515.8216    
    162.3483    
    904.6860    
   1291.0963    
   1286.3619    
    745.4865    
    369.7367    
    104.0831    
    375.8765    
    680.2700    
    945.0750    
    893.6342    
   1285.1460    
   1275.1796    
   1971.8422    
   1945.7843    
   1052.1527    
   1219.6445    
   1204.4658    
   1246.7959    
   2450.2258    
   2568.9937    
   2285.0942    
   2317.7031    
   2014.0698    
   2142.3857    
   1930.0610    
   1376.5157    
   1094.6455    
    329.9732    
    320.2213    
    315.5948    
    142.1448    
    142.6451    
    568.9438    
    548.8329    
   1103.8627    
    870.3370    
    699.9690    
      0.0000    
    438.1403    
    464.3397    
    126.7248    
     15.0661    
    543.0294    
    143.5375    
    230.9189    
    740.6551    
      0.0000    
    401.5394    
    504.8379    
    438.4910    
    820.7988    
    116.9002    
    941.1135    
    291.7126    
     26.6399    
    118.8932    
    195.9940    
      0.0000    
    535.5577    
    608.1924    
    634.4820    
    475.3072    
    239.8874    
      0.0000    
    410.0059    
    760.9640    
    761.4611    
    283.3170    
    664.2633    
    233.1387    
    634.2936    
    495.7054    
     86.5473    
     81.9452    
     92.6364    
      0.0000    
    190.6057    
      0.0000    
      0.0000    
    176.7689    
      0.0000    
      4.4245    
      0.0000    
      0.0000    
     72.1115    
      0.0000    
      0.0000    
    334.2160    
      0.0000    
      0.0000    
      0.0000    
     34.8286    
      0.0000    
      0.0000    
    102.5465    
    164.2663    
      0.0000    
    282.8301    
    104.5244    
      0.0000    
    315.0325    
    100.9107    
      0.0000    
    183.5382    
      0.0000    
      0.0000    
    139.0800    
    103.8734    
    165.5823    
    252.9417    
    217.6449    
     90.5526    
    305.5935    
     10.0701    
    419.3599    
      0.0000    
    440.8780    
      0.0000    
     32.8886    
    309.0431    
     49.1446    
    177.0958    
     45.0374    
     91.3708    
     71.4838    
    301.7559    
    113.2351    
    292.5043    
      0.0000    
     17.9476    
    207.0588    
    136.0878    
      0.0000    
      0.0000    
     35.6692    
      0.0000    
    230.4415    
    487.1688    
      0.0000    
      7.6011    
    288.6550    
    437.7693    
      9.0733    
    295.2448    
      0.0000    
    137.8630    
      0.0000    
      0.0000    
      0.0000    
    216.3842    
      0.0000    
      0.0000    
      0.0000    
      0.0000    
     70.9317    
     56.1456    
      0.0000    
    169.2455    
      0.0000    
    129.4239    
     99.3327    
      0.0000    
      0.0000    
    172.1804    
      0.0000    
      0.0000    
      0.0000    
      0.0000    
    312.6010    
    292.6223    
     38.0377    
    165.8864    
    463.2109    
     80.2202    
     85.7983    
      0.0000    
      0.0000    
      0.0000    
    118.3166    
    169.7900    
      0.0000    
    247.3509    
    120.2669    
    166.6379    
      0.0000    
     35.1786    
      0.0000    
    306.5179    
     26.4697    
    179.7650    
    261.9547    
     94.0834    
    242.4880    
      0.0000    
    110.8256    
    167.3787    
     86.3335    
    112.2847    
      0.0000    
      0.0000    
    210.6310    
      0.0000    
    221.8154    
    324.5322    
     64.7707    
    162.0406    
      0.0000    
    290.6678    
    342.3139    
     57.0237    
    251.2347    
     57.9941    
      0.0000    
    186.3248    
    309.4061    
      0.0000    
    356.4354    
    234.1986    
    132.6667    
      0.0000    
    261.1932    
      0.0000    
      0.0000    
      0.0000    
      0.0000    
      0.0000    
     80.5273    
    116.6485    
    377.6098    
      0.0000    
    235.3894    
    123.6779    
     68.1659    
      0.0000    
     64.0449    
    283.7821    
    309.8289    
    197.9433    
      0.0000    
    117.3570    
      0.0000    
      0.0000    
     98.4402    
      0.0000    
    140.1461    
    503.7754    
    478.5924    
    243.6021    
      0.0000    
    229.2520    
    163.4245    
     41.7427    
    169.4870    
    282.2510    
      0.0000    
     74.1808    
    207.1111    
    751.5352    
    305.1049    
    326.0401    
    198.8343    
      0.0000    
     21.6306    
     37.3561    
    103.9573    
     53.5707    
    268.0759    
    288.9925    
    468.6668    
    551.2986    
    162.8637    
    285.8055    
    378.3462    
      0.0000    
     78.2363    
    786.0128    
    642.1063    
    673.4879    
    442.7054    
    566.3815    
     60.7802    
    321.2746    
    531.8554    
    640.3181    
    785.1686    
    543.5669    
    472.1821    
    544.5262    
    591.2653    
    571.1796    
    731.2750    
    690.5123    
    954.5549    
    598.8055    
    486.2785    
    635.7780    
    584.8140    
    843.0735    
    978.1651    
    787.1964    
    792.8367    
   1083.4207    
    897.1951    
   1048.0153    
    758.6160    
   1309.3357    
   1013.1165    
   1509.1537    
   1772.6042    
   2646.2959    
   3024.5703    
   3718.4722    
   3801.5425    
   4100.5801    
   3934.9521    
   3484.4351    
   3435.6787    
   4141.3345    
   4773.4229    
   5129.8262    
   6336.9209    
   7218.9819    
   7499.1875    
   7065.9209    
   6443.7358    
   5617.2910    
   3813.7351    
   2908.2104    
   2585.5415    
   2516.3013    
   2036.9780    
   2570.8740    
   3822.1084    
   5712.8936    
   6454.3389    
   5233.9697    
   3967.5591    
   3363.7551    
   2617.1499    
   2317.8730    
   3076.8301    
   2893.2690    
   3110.3345    
   2630.2698    
   2657.6113    
   3460.4385    
   3878.4094    
   2621.4324    
   1923.7255    
   1876.6210    
   1482.4791    
   1242.5773    
   1144.1333    
   1077.0454    
   1390.1711    
   1135.1564    
   1135.6313    
   1365.4598    
   1549.1902    
   1728.3859    
   1850.1503    
   1456.2773    
   1577.3290    
   1804.0757    
   1546.7941    
   1894.7866    
   2043.4867    
   2006.8599    
   2465.2275    
   2119.2039    
   2140.9233    
   2611.3499    
   1977.4537    
   1777.1786    
   1457.2085    
   1809.7645    
   1353.5726    
   1458.6295    
    907.4979    
    918.3199    
   1643.6384    
   1090.3231    
   1403.4471    
   1608.2821    
   1530.0468    
    993.6522    
   1186.2615    
   1699.5381    
   1589.6449    
    938.5752    
   1047.8665    
   1074.2844    
    404.8266    
    145.1095    
     69.3334    
    406.2441    
    324.9293    
    402.0721    
    239.1356    
    270.2020    
    209.5060    
     11.7301    
    144.2718    
    251.6908    
     53.7430    
     74.5268    
    125.8160    
    228.0936    
    142.0151    
    361.7163    
    290.6967    
    240.1712    
      0.0000    
     17.3900    
    119.4210    
     89.3993    
    283.3217    
     90.3415    
    258.7624    
     15.1468    
    203.6531    
    173.5803    
    275.9438    
      0.0000    
    124.1302    
    292.6617    
    191.2028    
    227.3222    
    340.0126    
     50.2925    
     76.1465    
    102.0113    
    219.4867    
    332.1519    
    256.0954    
     32.8169    
     18.0712    
      0.0000    
      0.0000    
    370.7267    
     60.5384    
    238.9981    
    127.5073    
    311.3256    
     16.7565    
     83.1933    
    302.5299    
     58.7482    
      0.0000    
    191.8289    
    212.6614    
    269.1754    
      0.2313    
    224.2518    
    480.0756    
     77.7273    
    220.5645    
    769.1673    
     63.9059    
    272.9253    
      0.0000    
      0.0000    
    187.7422    
      0.0000    
    147.9908    
    357.3748    
     27.0688    
      0.0000    
      0.0000    
      0.0000    
      0.0000    
    395.9460    
     50.1637    
      0.0000    
    305.4417    
    367.1616    
    357.4132    
    490.8423    
      0.0000    
     88.9601    
     84.3500    
     13.8050    
     49.7647    
      0.0000    
      0.0000    
     66.3879    
     97.3078    
      0.0000    
     32.2844    
     68.2553    
      0.0000    
    482.0201    
    237.3989    
    125.9667    
    258.7066    
    106.5863    
    320.8173    
      0.0000    
    133.3799    
    169.4244    
      0.0000    
      7.9355    
    313.4109    
    120.4712    
    171.7546    
     70.6414    
    147.2721    
    107.1006    
    178.7034    
    108.0319    
    419.2581    
    373.7405    
      0.0000    
    150.5312    
    405.7881    
      0.0000    
    157.0070    
