  11100 11  1   BR262    PO     BMW  .000 U S1 042793 00.01   1        
  PROGRAM LAMBDA-9   VERSION 02.31                                     
  USER BMW DATE & TIME  1993 04 27 04.08 00.00    4.9200    295K P     
 AU1 HO  44     0     0 YLF              .320000 -  .435000 .00010     
 FILE NAME                                ON PC = BR262.SP             
 NO_POINTS  =  1151.    pts   DATA_INTV =  .000100 æm                  
 MIN_LAMBDA =   .320000 æm     MIN_DATA =    .44350                    
 MAX_LAMBDA =   .435000 æm     MAX_DATA =    .90570                    
 SCANSPEED  = 15.000000 NM/MIN SLITWIDTH=   .20000 NM                  
  RESP TIME =   .5      sec SENSITIVITY = 5          DATE=93/04/27     
 OSU SAMPLE--CONC CORRECTED .44%                                       
  This spectra is part of Database LASERS
 Database LASERS was created by Pat Cross working 
 at NASA Langley Research Center, Internal Operations Group,
 Aerospace Electronics Systems Division, Remote Sensing 
 Technology Branch. phone:(757)864-1633   fax:(757)864-7894 
     e-mail p.l.cross@larc.nasa.gov 
     homepage http://aesd.larc.nasa.gov/laser/dbmain.htm
  EOH     (1X,F11.4)                                                   
  1151.         
    712.2058    
     31.3580    
    787.4838    
    115.9783    
    330.8532    
      0.0000    
    906.5687    
    716.6991    
    218.3445    
    276.4900    
    444.8227    
    519.0209    
    132.1806    
    783.9671    
     39.7014    
     29.9381    
    124.3211    
      0.0000    
      0.0000    
     32.5044    
    100.8277    
     18.1828    
    180.3304    
    711.1249    
    701.2104    
      0.0000    
    607.5855    
    324.6682    
    761.8682    
    242.2652    
   1086.6511    
    369.1299    
    375.0121    
    860.2972    
    686.5154    
    761.0746    
   1085.1759    
    640.9808    
    652.1653    
    285.2699    
    695.6357    
     51.8158    
    850.1834    
    988.6693    
    382.7049    
      0.0000    
    773.4079    
     24.4510    
   1135.4579    
    976.5890    
    760.1204    
    592.0173    
    713.8818    
   1143.9860    
    195.6252    
    300.7545    
   1092.6718    
    469.7078    
    375.9579    
    329.4738    
     27.5831    
   1101.1967    
    300.0079    
    699.8232    
    689.9162    
     72.3944    
    564.7957    
    866.2007    
    829.7995    
    989.4007    
    472.7842    
    546.9642    
    731.9708    
    923.0134    
    512.1005    
    324.0238    
    308.9729    
    382.8861    
    661.9754    
   1342.1042    
    948.6963    
    695.5265    
    601.3455    
    675.7181    
    502.7465    
    824.8173    
    651.2902    
    678.2781    
    615.7101    
    705.9209    
    208.2412    
    892.1544    
    350.6008    
   1158.9457    
      0.0000    
    326.3634    
    726.2234    
   1033.8696    
    695.8577    
    622.7480    
    844.9931    
    766.3661    
   1308.7152    
    504.4032    
    678.6118    
     82.3862    
    727.3436    
    722.7075    
    929.5095    
   1624.0814    
   1743.1942    
   2807.4343    
   2598.8762    
   1847.6759    
   2820.3877    
   3972.1570    
   3972.7964    
   4013.0601    
   3624.5903    
   3117.0178    
   3189.9192    
   1761.0106    
   2331.4473    
   2975.3953    
   2601.0574    
   1731.2198    
   2007.5465    
   3423.0317    
   4779.4868    
   6606.1514    
   6624.7607    
   6362.5303    
   6333.3906    
   4370.0313    
   2728.4280    
   2040.4156    
   2171.4365    
   2956.6643    
   4878.0771    
   6774.5308    
   5676.4692    
   2743.9160    
   1618.2904    
   2040.1006    
   1759.5299    
   1117.6895    
   1706.9253    
   1567.7616    
   1327.4327    
   1274.6936    
   1451.7129    
   2230.0044    
    920.5544    
   1186.6437    
    958.9027    
   1155.9869    
   1002.5842    
   1114.7177    
   1088.7871    
   1275.7433    
    819.9087    
   1234.3658    
    805.3435    
    716.3087    
    722.2178    
    812.5363    
    961.2676    
    903.6706    
   1063.3030    
    667.4725    
    762.9534    
    521.6024    
    548.4836    
      1.1473    
     12.1611    
    539.8976    
    503.8096    
    394.4445    
    547.0615    
    239.0244    
     78.3018    
    685.6593    
    518.1293    
    729.0706    
    205.7283    
    383.8549    
     71.7393    
    160.7753    
      0.0000    
    543.5790    
    533.7231    
    361.5365    
    545.4922    
    394.1885    
    332.0975    
    552.6545    
    548.0428    
    475.2659    
    770.2673    
    513.2338    
    771.5424    
    719.4783    
    515.1464    
    636.5529    
    244.5411    
    637.8278    
    439.1069    
    492.1234    
    950.9885    
    909.2990    
    693.6204    
    452.7635    
    974.7126    
   1001.8368    
    517.5535    
   1019.0095    
    644.8383    
    472.2978    
    872.7463    
    583.7002    
    573.8389    
    684.8422    
   1438.7703    
   1273.9034    
   1242.5774    
    587.5228    
    352.4922    
   1271.1218    
    599.9376    
    826.9499    
    980.8876    
    833.5024    
   1093.4901    
    739.8685    
    819.5789    
   2376.2488    
   2186.2813    
   2263.0674    
   2220.1758    
   2324.2554    
   2537.9580    
   2238.4036    
   2293.4746    
   2946.8621    
   2409.2705    
   2876.3772    
   1986.5973    
   2778.4751    
   2977.6758    
   3211.0532    
   3563.0149    
   3771.2395    
   3435.7180    
   2622.9583    
   2230.3618    
   2662.6411    
   2280.6045    
   2286.6863    
   1354.8478    
   1585.5032    
   1698.8917    
   1308.7594    
   1732.4321    
   1400.7378    
   1636.9752    
   1167.6046    
   1579.2347    
   1227.3671    
    804.3018    
   1769.1730    
   2224.2310    
   2799.2498    
   1792.6198    
   1857.9281    
   2313.8391    
   2238.2842    
   2347.8020    
   2430.2698    
   2213.0103    
   1894.1176    
   1230.3151    
   1294.8363    
    744.7220    
   1424.1414    
    941.1832    
    762.4246    
    663.1130    
    900.8171    
    643.3737    
    738.6471    
    786.6729    
    624.2764    
   1004.4582    
    463.0858    
    589.4492    
    658.3282    
    779.9529    
    986.4684    
    419.2067    
    587.3812    
    206.7012    
    599.1423    
    432.2010    
    542.7400    
    496.2433    
    706.7315    
    860.1085    
    744.8246    
    777.0444    
    914.8008    
    338.0749    
    595.0070    
   1091.3329    
    371.2871    
    728.2271    
    828.9122    
   1088.5719    
    520.2087    
    395.3471    
    773.5036    
    747.8209    
    843.2664    
    670.2306    
    565.9292    
    629.4964    
   1152.6377    
    693.7877    
    936.7984    
    816.0883    
    964.4918    
    775.2245    
    691.7071    
   1098.7340    
   1014.6280    
    793.5594    
   1031.7773    
    700.1377    
    964.2850    
   1123.7532    
   1177.4530    
   1385.6279    
    824.3425    
    551.7952    
    899.4373    
    815.7083    
   1197.1929    
    827.5164    
   1619.9839    
   1082.3925    
    913.8004    
    772.1318    
    735.9443    
    453.5030    
   1202.2703    
    674.7913    
   1097.4338    
   1390.4520    
   1188.8776    
   1322.4434    
   1697.3354    
   1499.7703    
   1495.0588    
   1463.6377    
   2088.0125    
   2458.2412    
   2858.9631    
   3124.5725    
   3186.1450    
   3487.1003    
   2822.9854    
   2538.5083    
   2599.3086    
   2441.4924    
   3134.5500    
   2842.6589    
   2569.0161    
   2405.8643    
   2357.4734    
   2016.3944    
   2429.5720    
   1931.2776    
   2436.2908    
   2655.5679    
   3107.6804    
   3080.6606    
   2641.0366    
   3426.0352    
   3594.0996    
   4276.2578    
   4418.9648    
   4459.4609    
   4941.1021    
   5311.6104    
   5207.9170    
   4770.6416    
   5330.9253    
   4921.2520    
   4566.5508    
   4624.3120    
   4311.6118    
   5200.7783    
   6498.5913    
   7080.2852    
   7346.9224    
   7238.5513    
   8056.9023    
   8236.4258    
   9388.5195    
   9281.5537    
  10330.7832    
   9823.3301    
   9952.0635    
   8364.0039    
   7432.1465    
   6769.4976    
   6080.8374    
   5547.8438    
   5993.7212    
   5859.1548    
   6124.6763    
   6995.3418    
   7589.2969    
   8296.0342    
   9991.7480    
  10230.4746    
   8670.6650    
   7391.8193    
   6330.8955    
   5795.1060    
   6647.4775    
   6666.0229    
   8580.9990    
  10293.6436    
  10391.2754    
   8838.8213    
   6633.3716    
   5275.7017    
   5235.7915    
   5034.2393    
   4008.8113    
   3571.8003    
   2951.1831    
   2578.6655    
   2886.3787    
   2085.2366    
   2199.5630    
   1967.6968    
   2412.7139    
   2845.5520    
   2730.9004    
   1905.5563    
   2442.4788    
   1461.9529    
   1000.8306    
    764.4253    
    822.8891    
    797.2250    
    871.5232    
    572.9635    
    788.6107    
    973.5855    
    900.3931    
    853.6272    
    675.6438    
    388.7894    
    892.3852    
    719.5050    
    809.4436    
    883.7500    
    339.8747    
    869.2185    
    607.3569    
    315.7539    
     98.4190    
    619.7242    
    437.4536    
    615.7524    
    470.0211    
    329.9557    
    628.1239    
    786.1254    
    357.8741    
     47.1933    
    369.5539    
      0.0000    
    459.4262    
    554.0648    
    294.0396    
    403.9686    
    488.0502    
    929.2728    
    730.0701    
    240.0528    
    313.4306    
    810.7467    
    424.0286    
    529.0314    
    420.0797    
     52.1374    
    125.2136    
    281.4684    
    521.7426    
    324.3210    
    460.3733    
    414.0828    
    440.7773    
    807.8181    
    504.6463    
   1030.3304    
    214.4680    
    454.3643    
    117.2646    
     35.1416    
    367.6923    
    279.9260    
    666.5927    
    573.0264    
    380.6292    
    298.0403    
    184.4850    
    906.0890    
    393.5713    
    352.5630    
    781.7873    
    291.4366    
    714.8383    
    474.9054    
    470.3204    
    895.3493    
    570.7822    
      0.0000    
      0.0000    
    645.9117    
    416.7748    
    584.3964    
      0.0000    
    486.4352    
   1075.0610    
    383.4836    
    207.4846    
    577.7288    
    620.1935    
    333.9901    
    443.9305    
    350.8522    
    159.4521    
    268.9753    
   1171.2810    
    965.9149    
    208.6156    
      0.0000    
    726.0122    
    742.3738    
    664.4037    
    357.1649    
   1181.6260    
      0.0000    
    588.4607    
    136.5942    
    282.3737    
    989.3021    
    658.9843    
   1064.4316    
    477.4053    
    451.9738    
    416.1439    
     53.7363    
    830.5757    
    752.4714    
    658.7975    
    434.9210    
      0.0000    
      0.0000    
    369.1548    
      0.0000    
      0.0000    
    225.6543    
      0.0000    
    361.9069    
      0.0000    
     31.5848    
    981.4681    
    239.8078    
      0.0000    
    621.1813    
   2077.0989    
    289.0235    
    743.4835    
    812.3141    
     94.0833    
    787.3322    
      0.0000    
    381.1390    
    153.4979    
    377.1988    
    268.7539    
     72.6595    
    332.3136    
      0.0000    
    162.4575    
     90.6844    
     34.5055    
    496.7902    
    523.4949    
    341.9199    
      0.0000    
      0.0000    
      0.0000    
    386.0252    
    469.9357    
    904.9976    
    471.1964    
    837.9451    
    859.5848    
   1526.9392    
   2241.9324    
   1902.8010    
   1363.9011    
   1126.1582    
   1100.3772    
    664.7964    
    791.1369    
    498.9692    
   1187.4642    
   1246.3230    
   1443.3536    
   1968.2461    
   1732.7582    
   1037.4541    
    885.4297    
    639.7208    
    348.5469    
    541.7709    
    542.4009    
    543.0309    
    695.1726    
    805.8337    
    727.8445    
    817.5848    
    410.7602    
    390.5911    
    516.1522    
    940.9419    
    564.3502    
   1248.3279    
   1904.9550    
   2658.3047    
   3268.9597    
   3203.2498    
   4056.9141    
   4063.1721    
   2683.2939    
   1641.5734    
   1588.8315    
   1632.1547    
   1340.0638    
   1500.1298    
   1548.6959    
   1480.0989    
   1608.6139    
   2362.3882    
   2886.6484    
   2461.3772    
   1760.7813    
   1841.7808    
   2381.8091    
   1538.3774    
   1114.7703    
    794.5180    
    554.6373    
    649.2306    
    436.1075    
    551.3101    
    745.2742    
    919.0223    
    547.9864    
    356.1085    
    232.2974    
    243.2826    
    607.8904    
    608.5197    
    682.2895    
    756.1752    
   1061.5411    
   1406.0916    
   1396.0985    
   1359.5754    
    785.5106    
   1143.8239    
   1244.8922    
   1002.7302    
    772.3111    
   1405.8132    
   1651.3602    
   1790.9988    
   1100.7292    
    885.5845    
    681.8981    
   1160.6785    
    866.4740    
    893.3521    
    626.9493    
    538.9106    
    701.3560    
   1122.2174    
   1302.6104    
   1223.8453    
   1045.0183    
    678.3643    
    366.4835    
    554.3630    
     26.4092    
    503.5311    
    229.0586    
    786.7766    
    188.9326    
    319.0060    
      0.0000    
    439.6751    
      0.0000    
    264.5202    
    384.4131    
    353.9010    
    344.1520    
      0.0000    
    444.0757    
    283.8301    
    315.5536    
    399.1973    
    405.0203    
     69.2793    
    214.5045    
    417.2963    
    127.9171    
    621.6022    
    268.7726    
     98.8392    
      0.0000    
      0.0000    
    333.4631    
     13.7339    
    683.4334    
    804.3764    
     67.1393    
    680.0936    
    254.3485    
    275.6849    
    219.3892    
    106.3795    
    189.6239    
    642.0915    
    221.9022    
     21.2736    
    638.7565    
    571.5959    
    723.5850    
      0.0000    
    215.3274    
      0.0000    
    159.7425    
    300.0161    
     83.6003    
      0.0000    
    276.0073    
    323.2527    
    448.4189    
    122.8463    
    351.0529    
    325.7647    
    643.5901    
    493.1474    
    348.3822    
      0.0000    
     70.5215    
    360.6348    
    678.6744    
    341.1523    
     16.3820    
    275.0753    
      0.0000    
     44.0054    
      8.5989    
      0.0000    
     25.2939    
      0.0000    
     83.2068    
      0.0000    
     22.6599    
    229.6252    
    724.0276    
      0.0000    
    148.8613    
      0.0000    
    414.0669    
    461.4293    
    208.1750    
    447.1010    
    364.7042    
     29.5640    
      0.0000    
      0.0000    
      0.0000    
    513.2350    
      0.0000    
     89.9803    
    426.7859    
    458.5712    
    246.7172    
    449.4368    
    398.1619    
    289.9830    
    337.2090    
    337.8364    
    338.4637    
    240.7704    
    158.7601    
    309.2748    
    149.6969    
    362.3270    
    399.2474    
    301.4327    
    442.0157    
    629.9148    
     81.2913    
    469.8633    
      0.0000    
     93.4746    
    264.4350    
    265.0621    
    431.4620    
    287.0059    
     34.8255    
    329.6669    
      0.0000    
    196.4861    
     11.6169    
     63.6953    
    634.1087    
    525.4144    
     19.2685    
    179.6004    
      0.0000    
    222.1593    
    124.7480    
    643.7107    
    701.7115    
    405.8079    
    468.7054    
    609.7451    
      0.0000    
    361.6667    
    471.2129    
    518.5955    
    208.3980    
    116.1835    
    328.5524    
    143.2058    
    159.3043    
      0.0000    
    372.4894    
    362.7567    
    477.4806    
    441.7733    
    442.4000    
    101.8444    
     71.5802    
    221.7096    
    186.2052    
    145.5730    
    440.9707    
    317.2546    
    245.4989    
    287.4720    
    107.4839    
    226.7222    
    507.0287    
    315.8393    
    306.1184    
    229.2282    
   1137.1735    
    504.9656    
    143.4073    
    542.5933    
    689.0062    
    403.6985    
    321.4773    
    529.5066    
    276.1909    
    489.2035    
    598.9913    
    792.5812    
    621.0662    
    600.8702    
    679.6280    
    664.6180    
    327.7404    
    468.2596    
    246.2905    
    428.0201    
    164.9915    
    621.4952    
    904.1093    
    899.4969    
    753.7095    
    995.1183    
    681.9286    
    666.9202    
    698.8206    
   1018.6202    
    862.0021    
    648.5857    
   1025.7500    
   1247.4480    
    927.3384    
    760.5963    
    682.9760    
    772.2927    
   1166.2366    
   1051.1412    
   1146.4264    
   1015.6337    
   1011.0098    
    849.2136    
    907.4084    
   1276.0696    
   1382.3914    
   1171.8696    
   1214.6484    
    952.4515    
   1200.0858    
   1555.1356    
   1704.6869    
   2095.8582    
   1903.4739    
   2724.5715    
   3866.5220    
   4621.2979    
   4929.3511    
   5050.0894    
   5801.2817    
   4777.2603    
   4161.4702    
   4066.6960    
   4495.3569    
   6090.5142    
   8513.9248    
  11169.4287    
  14694.0596    
  19926.0820    
  27724.0645    
  32687.4023    
  27510.6563    
  18032.1211    
  11069.3281    
   7307.3076    
   5561.6733    
   4941.2368    
   3969.6863    
   4239.5659    
   4897.4419    
   5599.5522    
   7607.2378    
  10665.8428    
  13156.8486    
  15941.7451    
  23134.4707    
  31596.1621    
  32448.7324    
  29645.8379    
  28901.7793    
  23069.9004    
  15563.6055    
  11632.3887    
   7638.9521    
   5238.9868    
   4776.3833    
   6081.2500    
   8355.2852    
  10980.7148    
   9723.0703    
   6708.3984    
   4865.5679    
   3845.7009    
   3863.0574    
   4193.9800    
   4144.0693    
   4071.7920    
   3871.1372    
   3860.6072    
   3367.4719    
   3473.0647    
   3806.7373    
   4064.3384    
   4154.6797    
   4521.5879    
   4010.2251    
   4647.4712    
   5530.0742    
   6701.8506    
   7715.7847    
   7516.7930    
   5927.4429    
   5032.8696    
   4312.7261    
   4021.4456    
   4336.5068    
   4174.0322    
   3400.7991    
   2950.9119    
   2809.6030    
   2733.9829    
   2821.7568    
   3414.9678    
   4908.3745    
   8224.9502    
  10595.6445    
  11128.2793    
   9772.1572    
   8141.7319    
   6389.9351    
   5239.0024    
   4634.7339    
   3625.9919    
   3058.7993    
   2650.3147    
   2245.4214    
   1487.8790    
   1319.3542    
    737.9960    
    879.5122    
    469.1076    
    651.3818    
    719.6576    
    814.1187    
    419.8370    
    348.0791    
    675.3100    
    743.6162    
    780.7263    
    697.9985    
    480.5299    
    507.0647    
    311.1434    
    332.4179    
    260.8055    
    323.3387    
    556.8613    
      0.0000    
    289.0887    
    258.7739    
    115.2847    
    363.2355    
    384.5307    
     35.0066    
    303.1538    
    345.0706    
    376.6924    
    496.3239    
    331.4537    
    487.2128    
    343.0298    
    696.1203    
    468.3701    
    365.5584    
    366.1825    
    227.5384    
    584.9124    
    141.3139    
     13.6009    
     70.6495    
    174.0390    
     30.8540    
    340.1905    
    289.2194    
    367.2591    
    238.9298    
    136.6479    
    451.8487    
    297.4969    
    292.9630    
    340.0189    
    511.3001    
     22.3360    
    156.4355    
     28.7081    
    374.1218    
    509.2377    
    179.5005    
    360.5002    
    201.3269    
    310.1381    
    517.5381    
    409.4896    
    332.6456    
      0.0000    
    169.0630    
    432.6646    
    103.5169    
    160.6530    
    398.3521    
    326.6935    
      0.0000    
     19.4314    
     20.0550    
      0.0000    
    391.7589    
    304.6461    
    197.1184    
    616.2998    
    476.9832    
    405.2113    
    220.1936    
    169.3829    
    345.1174    
     32.0395    
    119.8732    
     74.3071    
    357.9343    
    239.9989    
    483.2178    
     61.4144    
    159.5749    
    335.2508    
    320.4019    
    460.4647    
    502.4855    
    157.5521    
     60.6492    
    406.0977    
    572.3297    
    386.6879    
    376.9834    
    543.1010    
    290.5522    
      0.0000    
    369.1539    
    400.7542    
    256.9906    
    391.6736    
    480.1608    
    186.8355    
    166.9004    
    172.6630    
    332.8664    
    794.7294    
    225.9493    
    293.4998    
    216.9056    
    253.5469    
    156.4731    
    244.5005    
