  11100 11  1   BR258    PO     BMW  .000 U S1 042793 00.01   1        
  PROGRAM LAMBDA-9   VERSION 02.31                                     
  USER BMW DATE & TIME  1993 04 27 04.03 00.00    4.9200    295K S     
 AU1 HO  44     0     0 YLF              .520000 -  .570000 .00010     
 FILE NAME                                ON PC = BR258.SP             
 NO_POINTS  =   501.    pts   DATA_INTV =  .000100 æm                  
 MIN_LAMBDA =   .520000 æm     MIN_DATA =    .61300                    
 MAX_LAMBDA =   .570000 æm     MAX_DATA =    .92000                    
 SCANSPEED  = 15.000000 NM/MIN SLITWIDTH=   .20000 NM                  
  RESP TIME =   .5      sec SENSITIVITY = 5          DATE=93/04/27     
 OSU SAMPLE--CONC CORRECTED .44%                                       
  This spectra is part of Database LASERS
 Database LASERS was created by Pat Cross working 
 at NASA Langley Research Center, Internal Operations Group,
 Aerospace Electronics Systems Division, Remote Sensing 
 Technology Branch. phone:(757)864-1633   fax:(757)864-7894 
     e-mail p.l.cross@larc.nasa.gov 
     homepage http://aesd.larc.nasa.gov/laser/dbmain.htm
  EOH     (1X,F11.4)                                                   
   501.         
      0.0000    
    330.8925    
    214.3460    
    108.2217    
    245.6049    
    134.3432    
    124.5988    
    216.3018    
    226.8485    
    242.4786    
    247.9514    
    344.9881    
    279.2300    
    284.7067    
    229.1944    
    117.9815    
    194.4369    
     27.6514    
    179.9962    
    287.0518    
    292.5288    
    343.8042    
    232.3208    
    217.4774    
    309.3508    
    406.5043    
    193.2684    
    285.0914    
    316.0017    
    184.2934    
    199.9062    
    129.3000    
    358.2829    
    287.4343    
    105.1405    
    456.3130    
    278.4386    
    288.9957    
    147.2365    
    254.1978    
    264.7522    
     47.1400    
    377.4683    
    326.9428    
    174.9308    
    241.2998    
    256.9289    
    237.0003    
    278.0365    
    375.1041    
    278.8165    
    137.1039    
    452.7414    
    310.4929    
    382.1484    
    581.6377    
    617.8542    
    434.2867    
    358.2428    
    348.4493    
    491.5876    
    384.8768    
    426.0352    
    548.9565    
    523.7911    
    534.3992    
    371.5424    
    611.8997    
    561.1284    
    530.8492    
    500.5873    
    495.8727    
    583.1443    
    471.1275    
    717.1206    
    492.3236    
    861.7721    
    533.9642    
    872.8431    
    473.4633    
    914.8206    
    678.8201    
    433.8230    
    838.7707    
    685.1144    
    583.0881    
    629.5367    
    773.5112    
    830.4315    
    918.3223    
    892.9598    
    785.3389    
    422.4202    
    565.7439    
    632.6482    
    720.1602    
    515.8119    
    720.9377    
    680.3058    
    721.7152    
    865.9608    
    768.6822    
    728.0121    
    523.6409    
    759.5807    
    708.6608    
   1033.2512    
   1105.9946    
    838.2061    
    864.3116    
    638.8663    
    695.6105    
    896.3605    
    809.3055    
    717.2859    
   1021.2576    
    908.2109    
    985.9113    
   1151.6643    
   1131.3491    
   1302.8160    
   1168.3617    
   1360.7596    
   1267.6383    
   1543.9027    
   1175.0940    
   1440.3820    
   1534.6278    
   1498.4930    
   1509.3118    
   1436.7244    
   1661.6198    
   1919.1810    
   1898.5212    
   2390.7571    
   2237.2100    
   2786.6709    
   2905.1877    
   3631.6851    
   4871.9458    
   5761.6284    
   7303.0122    
   8635.1357    
   9532.7520    
   9514.5283    
   8660.6494    
   8309.1992    
   8473.0410    
   8832.6279    
  10386.8320    
  12415.9033    
  12654.6758    
  10432.2617    
   7699.5874    
   6163.3682    
   5584.7900    
   6135.3120    
   6285.8296    
   6072.7163    
   5946.6240    
   6530.5425    
   7133.7046    
   7894.3047    
   7530.8433    
   7442.1958    
   7513.7939    
   7460.7627    
   7556.1597    
   8034.5615    
   9561.4453    
  12291.7422    
  14635.9092    
  17990.9102    
  18515.8066    
  15314.0908    
  10911.7529    
   7929.6719    
   7028.1138    
   5764.9048    
   4999.7759    
   5236.9658    
   5492.4272    
   7295.2397    
   9313.0313    
   9418.4932    
   8239.7686    
   7060.9829    
   6750.7744    
   6914.9883    
   8156.9434    
  10923.9473    
  15047.2666    
  17701.5762    
  17311.2715    
  14279.0342    
  10537.5615    
   7793.8159    
   6197.3140    
   4917.2256    
   4426.3062    
   4012.0500    
   3825.6826    
   3842.5161    
   4217.2983    
   5178.4570    
   5167.5571    
   4479.0161    
   4285.2300    
   4357.6411    
   5248.1709    
   7282.4229    
   8485.6650    
   9293.3730    
  10474.8340    
  10684.5713    
   9048.3975    
   6239.2856    
   5059.4683    
   3793.8899    
   3276.8611    
   3282.6641    
   3207.2786    
   3473.4094    
   3604.5188    
   4203.2954    
   4781.9429    
   5572.3687    
   6231.9785    
   6673.2466    
   6031.1196    
   6083.2710    
   6181.5903    
   6187.7446    
   6616.9238    
   6868.3145    
   6640.9868    
   6062.5703    
   5457.2393    
   4910.2134    
   4525.1167    
   4347.8096    
   4121.5264    
   3546.4355    
   3231.9858    
   2396.0720    
   2322.1401    
   1989.5665    
   1842.7383    
   1790.6611    
   1817.2684    
   1801.9178    
   2329.7532    
   2431.0393    
   2993.0408    
   3187.5623    
   3009.9570    
   3074.9873    
   2550.0725    
   2374.9065    
   2084.1809    
   2221.9534    
   1811.3984    
   2360.5205    
   2297.2546    
   1991.2300    
   2282.1262    
   1834.3081    
   1593.9375    
   1443.1833    
    993.0962    
    936.8361    
   1060.8976    
   1076.7648    
    794.1171    
   1056.8938    
    918.1780    
    790.1400    
    862.3969    
    914.1870    
   1033.0247    
   1411.3907    
   1354.6207    
   1646.7103    
   1573.9956    
   1736.3977    
   1195.4646    
   1226.9091    
   1774.2142    
   1879.5144    
   1774.9828    
   1911.8026    
   2012.1455    
   1797.0996    
   1939.2401    
   1625.2002    
   1256.2628    
   1500.7975    
   1345.1909    
   1705.1422    
   1601.0171    
   1403.4783    
   1523.5565    
   1134.7756    
   1114.4955    
    857.3607    
    857.7446    
    438.8811    
    485.0930    
    618.1301    
    603.1889    
    430.2366    
    359.4362    
    405.5704    
    319.5754    
    518.3599    
    330.4980    
    315.6527    
    631.8023    
    250.4816    
    321.8774    
    760.8920    
    414.1071    
    302.7303    
    308.1860    
    389.8351    
    675.7734    
    283.9725    
    304.6478    
    590.0511    
     82.6959    
    321.0220    
    499.3954    
    114.1524    
    185.3303    
    317.4791    
    110.2489    
    470.7514    
    191.9251    
    197.3707    
    182.5716    
    502.8446    
    376.0217    
    340.8499    
    204.3463    
    331.4608    
     98.9264    
      0.0000    
    236.2644    
    267.0503    
    216.7719    
    156.4326    
    237.7962    
    441.2512    
    558.8040    
     56.9406    
     92.6569    
     42.5720    
     42.9548    
    301.3020    
    185.1702    
    109.7216    
    282.1681    
    343.4301    
    303.2156    
    237.7063    
    451.3132    
     21.1845    
    294.6040    
    508.4690    
    209.2397    
     32.7972    
    301.2065    
    530.3827    
    256.3466    
    140.3421    
     54.8840    
     25.0096    
    349.1682    
    288.6713    
      0.0000    
    172.9695    
     67.2702    
    153.5088    
     27.6859    
     93.6507    
    306.5596    
    362.7651    
    125.1002    
    241.8183    
    460.4904    
    343.9863    
    578.4406    
    258.5424    
    676.2350    
    523.5046    
    285.0277    
    458.0789    
    504.2737    
    235.5123    
    505.0377    
    281.8680    
      0.0000    
     90.4332    
     80.7197    
    308.7457    
    532.8022    
    238.5672    
     16.6930    
      0.0000    
    244.7771    
    550.0005    
    326.6337    
    347.3117    
    556.2441    
    287.2128    
    176.2230    
      0.0000    
    268.0880    
    212.7777    
     56.5600    
    609.9235    
    391.3653    
    569.8741    
    103.4966    
      0.0000    
    311.6880    
    332.3568    
     29.3646    
    226.7122    
     40.2065    
    293.3163    
    364.7098    
    294.0789    
     46.7735    
      0.0000    
    274.9530    
    687.5319    
    220.0235    
    109.2160    
    357.6095    
      0.0000    
    348.2239    
     85.5065    
    111.1216    
    298.6526    
    354.8202    
    319.6932    
      0.0000    
      2.1049    
    305.6271    
    356.7250    
    240.5403    
    311.8399    
    215.9989    
      0.0000    
      0.0000    
      0.0000    
    192.2330    
    126.9307    
    142.4606    
    132.7424    
     97.7896    
    199.1940    
    103.5948    
    331.6196    
    119.4999    
    150.1771    
    170.7674    
    302.7258    
    363.9589    
     35.6653    
     31.0097    
     56.5854    
      0.0000    
     67.4306    
    153.6017    
    331.1141    
    174.5723    
    159.7953    
    428.6992    
      0.0000    
     75.1332    
      0.0000    
     75.8938    
    121.6797    
    132.1545    
     61.9103    
    218.8212    
      0.0000    
    169.0280    
      0.0000    
     83.9789    
      0.0000    
    104.9158    
     69.9932    
     14.9518    
    364.0798    
    278.2926    
    162.3464    
    273.9881    
     67.2314    
