  11100 12  1   BR263    POSU   BMW  .000 U I1 082393 00.01   1        
  PROGRAM LAMBDA-9   VERSION 02.31                                     
  USER BMW DATE & TIME  1993 09 08 15.40 51.21    4.6500    295K P     
 AU1 HO1200     0     0 YLF              .865000 -  .935000 .00020     
 FILE NAME                                ON PC = BR263.SP             
 NO_POINTS  =   351.    pts   DATA_INTV =  .000200 æm                  
 MIN_LAMBDA =   .865000 æm     MIN_DATA =    .21080                    
 MAX_LAMBDA =   .935000 æm     MAX_DATA =    .89980                    
 SCANSPEED  = 15.000000 NM/MIN SLITWIDTH=   .00000 PM                  
  RESP TIME =   .5      sec SENSITIVITY = 5          DATE=93/08/23     
 20:21:11    93/08/23                                                  
  BR263                                                                
  This spectra is part of Database LASERS
 Database LASERS was created by Pat Cross working 
 at NASA Langley Research Center, Internal Operations Group,
 Aerospace Electronics Systems Division, Remote Sensing 
 Technology Branch. phone:(757)864-1633   fax:(757)864-7894 
     e-mail p.l.cross@larc.nasa.gov 
     homepage http://aesd.larc.nasa.gov/laser/dbmain.htm
  EOH     (1X,F11.4)                                                   
   351.         
     71.4458    
     75.3886    
     72.2755    
     62.5556    
     68.5471    
     72.6908    
     69.9966    
     67.3065    
     74.1440    
     79.5496    
     76.2215    
     67.7209    
     87.6891    
     79.3422    
     75.3912    
     76.2225    
     78.0941    
     75.1840    
     75.8074    
     85.3911    
     70.2066    
     64.6228    
     80.8020    
     89.5748    
     81.8444    
     73.1097    
     72.9025    
     82.6792    
     82.4708    
     69.5871    
     76.6411    
     67.9317    
     77.0574    
     77.8894    
     90.8337    
     81.4298    
     75.8110    
     74.1497    
     94.6100    
     82.6816    
     81.6391    
     71.6612    
     80.8060    
     82.8910    
     71.8690    
     76.0206    
     90.4171    
     88.9515    
     92.5135    
     88.1149    
     79.3495    
     86.4423    
     85.6066    
     81.8502    
     83.5191    
     85.6072    
     76.2306    
     89.3721    
     85.3989    
     85.1903    
     81.8516    
     96.5053    
    105.7779    
     87.0718    
     88.9549    
     83.9386    
     90.2115    
     97.7681    
     85.4008    
     93.7764    
     94.6163    
     92.7278    
     93.7770    
     99.4528    
    111.0702    
     90.8418    
    117.6519    
    104.9361    
    116.1641    
     99.4540    
    117.2273    
    127.6773    
    111.7077    
    118.5043    
    115.7403    
    120.4208    
    137.3288    
    128.1062    
    136.4693    
    149.4122    
    150.9285    
    168.1282    
    189.2538    
    177.5602    
    225.4778    
    239.0821    
    299.7279    
    334.4353    
    382.8509    
    416.7078    
    410.9372    
    397.4609    
    345.0291    
    329.6421    
    318.6638    
    339.2440    
    342.1348    
    411.9409    
    482.2291    
    592.9784    
    763.9241    
   1046.8525    
   1283.2499    
   1407.7085    
   1327.4004    
   1137.7053    
    904.4246    
    796.5550    
    763.6207    
    740.5903    
    751.7658    
    763.0113    
    846.3227    
    988.1723    
   1205.8770    
   1458.2214    
   1645.6421    
   1763.1664    
   1811.2184    
   1922.9797    
   2083.1021    
   2354.1646    
   2600.7859    
   2600.7859    
   2233.1416    
   1761.5704    
   1312.4288    
    975.0864    
    746.9282    
    570.6636    
    529.7814    
    425.2813    
    383.5996    
    360.8012    
    318.4338    
    285.1999    
    292.6888    
    289.6429    
    312.7341    
    347.2129    
    349.3901    
    357.3958    
    351.8126    
    384.3420    
    481.1958    
    495.8449    
    562.7427    
    511.4094    
    461.2481    
    401.9533    
    309.4195    
    261.0789    
    242.9687    
    213.1110    
    183.3012    
    167.0493    
    147.9127    
    153.7626    
    163.7735    
    142.0824    
    141.2203    
    156.8042    
    136.7009    
    133.0506    
    126.1992    
    143.5934    
    150.0790    
    138.2072    
    141.2219    
    141.4377    
    143.8102    
    122.7845    
    147.9158    
    147.9160    
    127.6977    
    127.4840    
    134.7702    
    133.2678    
    146.8358    
    129.6246    
    127.2711    
    136.0599    
    142.7338    
    139.0712    
    142.9500    
    119.1650    
    115.3377    
    115.7627    
    108.3421    
    147.9192    
    145.5416    
    126.4182    
    144.6781    
    186.8425    
    158.7684    
    177.3625    
    178.0225    
    215.8137    
    241.6099    
    237.2848    
    242.9783    
    248.9187    
    251.2088    
    272.6469    
    263.1644    
    255.1092    
    275.4325    
    274.0397    
    347.2266    
    370.8316    
    371.3217    
    415.2248    
    467.9717    
    518.0585    
    529.5304    
    540.5376    
    522.0526    
    481.9920    
    455.6029    
    400.2233    
    371.5688    
    373.5305    
    366.4304    
    394.0097    
    386.3337    
    403.7140    
    454.8342    
    551.6149    
    672.6667    
    813.7468    
   1015.7161    
   1149.7960    
   1325.3381    
   1347.5906    
   1423.9727    
   1409.9204    
   1341.2653    
   1270.6862    
   1168.0496    
   1082.5969    
    970.3107    
    920.3579    
    816.2602    
    814.3768    
    804.0532    
    801.5597    
    818.1464    
    832.3509    
    760.6012    
    685.4717    
    666.0158    
    588.0243    
    541.3530    
    452.0179    
    396.0020    
    364.4831    
    323.4609    
    257.6473    
    218.5237    
    182.6603    
    208.6515    
    199.7234    
    194.6099    
    149.2322    
    115.1407    
    138.8722    
    124.2971    
    124.2973    
    113.0189    
    120.0333    
     79.1870    
    113.6560    
     75.0288    
    101.1796    
     77.7312    
    106.4562    
    104.3440    
     75.6530    
     99.2849    
     57.2577    
     69.0176    
     44.7580    
     80.2305    
     72.5406    
     69.4325    
     33.9685    
     87.9546    
     84.6110    
     99.4975    
     72.9566    
    101.6045    
     87.7464    
     76.2794    
     62.4088    
     67.7790    
     47.8266    
     17.4031    
     44.9655    
     70.2637    
    107.7296    
     52.5386    
     77.7366    
     42.3135    
     52.5392    
     22.0362    
     70.8866    
     49.4660    
     46.8064    
     92.5671    
     18.0091    
     15.1950    
     83.7807    
     43.9476    
     73.7914    
     58.7047    
     49.2630    
     63.6512    
     17.6085    
     23.0475    
     50.2877    
     63.0329    
     17.8103    
     52.9532    
     58.2950    
     26.4816    
     28.7067    
     66.7514    
     51.9287    
     65.0988    
     79.6151    
     25.0685    
     46.8112    
     23.4538    
     29.5180    
     77.5352    
     64.4807    
     37.4326    
     64.6875    
     56.4471    
     59.9450    
      0.0000    
