  11100 12  1   YSAG6    PUC    unk  .000 U S1 021793 00.01   1        
  PROGRAM LAMBDA-9   VERSION 02.31                                     
  USER BMW DATE & TIME  1993 02 21 10.25 05.59    10.500    295K U     
 AU1 HO  50     0     0 YSAG             .375000 -  .500000 .00010     
 FILE NAME                                ON PC = YSAG6.SP             
 NO_POINTS  =  1251.    pts   DATA_INTV =  .000100 æm                  
 MIN_LAMBDA =   .375000 æm     MIN_DATA =    .05020                    
 MAX_LAMBDA =   .500000 æm     MAX_DATA =    .41960                    
 SCANSPEED  = 15.000000 NM/MIN SLITWIDTH=   .00000 æm                  
  RESP TIME =   .5      sec SENSITIVITY = 5          DATE=93/02/17     
 16:16:30    93/02/17                                                  
  YSAG6                                                                
  This spectra is part of Database LASERS
 Database LASERS was created by Pat Cross working 
 at NASA Langley Research Center, Internal Operations Group,
 Aerospace Electronics Systems Division, Remote Sensing 
 Technology Branch. phone:(757)864-1633   fax:(757)864-7894 
     e-mail p.l.cross@larc.nasa.gov 
     homepage http://aesd.larc.nasa.gov/laser/dbmain.htm
  EOH     (1X,F11.4)                                                   
  1251.         
    301.7313    
    354.7781    
    244.1115    
     78.4338    
    385.9274    
    495.9083    
    518.4077    
    166.7818    
    295.9169    
     64.1523    
    289.3560    
    563.7735    
    810.6397    
    198.0564    
      0.0000    
     44.8548    
    147.7291    
    307.2457    
    421.7790    
    254.7899    
    471.7285    
    253.3463    
    573.4925    
    487.5036    
    207.9686    
      0.0000    
    155.8368    
      0.0000    
    543.0535    
    416.1568    
    198.5974    
    159.8797    
    483.2943    
    521.1842    
    553.9761    
    401.4383    
    511.1756    
    150.5596    
      0.0000    
    225.1193    
      0.0000    
      0.0000    
    159.6481    
    344.3723    
    361.5115    
    210.6598    
     50.9689    
    321.0302    
    104.9243    
    167.3035    
    250.1716    
    272.3036    
    284.2845    
    439.2554    
    374.5486    
    264.3176    
    200.2298    
    339.1673    
    582.0594    
    563.2341    
    544.4307    
    412.7906    
    414.6013    
    258.5080    
    280.6196    
    272.2759    
    279.1607    
    154.4745    
    298.0142    
    269.3638    
    686.5493    
    828.8539    
    825.4385    
   1127.2141    
   1487.7645    
   1093.7341    
   1164.4868    
   1612.4692    
   1549.1182    
   1196.4879    
    976.1309    
    530.9590    
    455.8649    
    183.3785    
    403.2775    
    405.0811    
    345.7694    
    434.2097    
    502.5323    
    524.8494    
    701.9216    
    980.1957    
   1108.5254    
   1505.8303    
   1464.4752    
   1082.2164    
    522.0699    
    647.3213    
    535.9252    
    522.3413    
    396.4236    
    505.4463    
    451.0040    
    366.2111    
    716.7632    
   1137.2058    
   1735.5507    
   2620.0637    
   2490.7920    
   1588.6881    
   1035.4009    
   1206.2748    
   1545.3945    
   1863.1144    
   2186.1624    
   1757.1711    
   1130.5220    
    880.3738    
    788.5415    
    857.9077    
   1058.6061    
   1272.0400    
   1439.4886    
   1452.0181    
   1171.3010    
    910.3629    
    912.1541    
   1008.1108    
   1152.0289    
   1048.4377    
    971.5737    
    832.5975    
    586.6771    
    567.9681    
    646.7369    
    586.9163    
    691.4985    
    864.1188    
    970.1902    
    852.0992    
    817.5510    
    746.8742    
    748.6608    
    652.5427    
    613.2549    
    553.5970    
    499.2321    
    562.2795    
    390.9956    
    241.3678    
    223.0540    
    109.6860    
    151.4428    
     78.3445    
    300.6226    
    211.8938    
    163.5779    
    270.7201    
    217.2403    
    128.9384    
    245.9019    
    177.4893    
      0.0000    
     41.4344    
      0.0000    
    114.6746    
     16.9884    
     73.4097    
    129.9879    
    166.7209    
    223.5577    
    220.3232    
    207.0739    
    264.0114    
    300.9735    
    302.7506    
    164.1764    
    180.9407    
    212.7295    
    224.5201    
    156.3032    
    323.4720    
    320.2132    
    211.5969    
    303.6447    
    260.2288    
    241.9523    
    213.6898    
    185.4758    
    107.5101    
    174.0443    
    270.8684    
    489.5231    
    319.6028    
    346.5263    
    247.8881    
    179.6867    
    166.4972    
    208.1887    
    249.9653    
    256.7413    
    168.5929    
    220.2654    
    292.1176    
    148.9989    
    125.8983    
      0.0000    
      5.5718    
      0.0000    
    152.8623    
    174.5438    
     81.9055    
      0.0000    
      6.3004    
    186.5930    
    108.8074    
      0.0000    
      0.0000    
      0.0000    
    105.9477    
     43.3535    
     89.6505    
      2.4530    
     14.0811    
      5.9803    
      0.0000    
     98.4681    
    169.7112    
      0.0000    
    118.6224    
      0.0000    
     62.7463    
    113.9942    
     86.0485    
    132.3884    
    149.0313    
      0.0000    
    157.5146    
     35.5721    
      0.0000    
     63.7682    
    100.1276    
     91.9939    
    168.0691    
    100.4553    
     82.4385    
     24.9965    
    244.7272    
    251.4666    
    173.6512    
     51.7377    
     48.5630    
     20.7659    
    126.1619    
    212.2326    
    199.0807    
     67.2023    
    113.3974    
    139.8870    
    102.0816    
    163.2043    
     75.9733    
      0.0000    
     99.2187    
    135.5631    
    127.4258    
    129.1782    
    125.9880    
      0.0000    
    149.2712    
     72.0278    
      4.9249    
    110.0495    
    161.2224    
    227.4153    
    159.7753    
    166.4725    
    153.3822    
     76.1776    
      0.0000    
    124.0467    
     42.0686    
    157.1809    
    263.0290    
    155.7343    
    271.4949    
    119.7309    
    185.7031    
    118.2937    
    189.1962    
    131.6507    
    257.1310    
    363.4379    
    280.4947    
    287.2105    
    110.8002    
    176.6870    
    178.4314    
    269.3453    
    221.4981    
    223.2417    
    126.1915    
    197.0369    
     80.4707    
    324.5468    
    113.4645    
    154.6215    
    220.5887    
    197.6031    
    358.1580    
    374.8555    
    311.8689    
    234.2445    
    211.2497    
    327.0341    
    313.8590    
    251.1057    
    134.3535    
    279.3644    
    216.7444    
    183.9185    
    384.0201    
    246.6867    
    347.6572    
    304.6763    
    435.8889    
    362.8213    
    429.3719    
    366.2948    
    328.2547    
    334.9591    
    406.3752    
    498.0761    
    389.9112    
    436.5288    
    393.3812    
    365.2539    
    396.8503    
    498.4676    
    455.1894    
    491.9231    
    513.6860    
    585.6868    
    637.7712    
    513.8762    
    480.5796    
    507.3262    
    409.2013    
    515.7959    
    633.0436    
    499.2398    
    490.9692    
    522.7204    
    660.1291    
    717.4141    
    653.5058    
    529.6411    
    506.3510    
    578.2186    
    559.8814    
    717.6776    
    684.0535    
    650.4946    
    662.2983    
    613.7014    
    842.9415    
    865.0247    
    851.4837    
    909.2557    
    839.6799    
    861.7513    
    873.6581    
    911.0583    
    943.4160    
    853.3947    
    962.2004    
    948.5917    
    986.1154    
    921.4091    
   1004.9267    
    981.0529    
   1069.9520    
   1051.1277    
   1160.9735    
   1553.9387    
   2269.8633    
   3231.0417    
   3912.2710    
   4075.6938    
   4167.8467    
   4640.6592    
   5555.9282    
   6205.4097    
   5670.1704    
   4765.6025    
   4354.2324    
   5013.6885    
   5527.2993    
   5425.5347    
   4836.6328    
   4265.4946    
   3972.1755    
   3281.6047    
   2115.6936    
   1699.3562    
   1903.5958    
   2267.7249    
   2958.9238    
   3309.2051    
   3247.5930    
   2839.9126    
   2751.8350    
   3012.8613    
   3573.2327    
   4607.7227    
   6251.6592    
   7204.9194    
   6457.9414    
   5229.0767    
   4789.8550    
   4991.8750    
   5183.3096    
   5210.4634    
   4902.8633    
   4873.2954    
   4875.0093    
   5058.8760    
   6024.9858    
   7589.5366    
  10156.3359    
  11631.8906    
  11184.5752    
  11519.8477    
  12586.8652    
  13362.6279    
  12759.6016    
  12193.5186    
  13019.8496    
  14115.3613    
  13498.3936    
  10133.9766    
   6329.8506    
   3751.9233    
   2578.4675    
   1938.3064    
   1684.9796    
   1492.4043    
   1395.1106    
   1298.3269    
   1492.3066    
   1756.9619    
   2377.5901    
   3292.5032    
   4338.0952    
   5886.1616    
   6942.2090    
   7884.0273    
   8381.2715    
   8174.3174    
   6824.3584    
   5473.7510    
   4589.6543    
   4208.5103    
   4132.1631    
   4121.8882    
   3609.6399    
   3054.2056    
   2366.6296    
   1893.8706    
   1557.7845    
   1304.8589    
   1280.7687    
   1205.3047    
   1114.8167    
   1270.4191    
   1354.7126    
   1284.1281    
   1435.8734    
   1531.3035    
   1637.6914    
   1839.8945    
   2092.5422    
   2321.3254    
   2443.0635    
   2302.9824    
   2239.6001    
   2058.0967    
   1804.1187    
   1637.2544    
   1523.9264    
   1395.7476    
   1522.1115    
   1596.9093    
   1809.0231    
   2071.6887    
   2132.4661    
   2307.0793    
   2184.3354    
   2003.5522    
   1850.9735    
   1964.2618    
   2169.5640    
   2453.4526    
   2625.3901    
   2396.8008    
   1940.7927    
   1568.4261    
   1172.5829    
   1158.9552    
   1206.6528    
   1111.3616    
   1052.0554    
   1329.8073    
   1336.6508    
   1276.6359    
   1304.0172    
   1352.0365    
   1702.1880    
   2182.2227    
   2680.1025    
   2937.6206    
   2633.8342    
   2416.3965    
   1849.3005    
   1283.2979    
    994.7251    
    850.4182    
    642.6277    
    550.3057    
    556.9324    
    558.6229    
    511.0060    
    497.9276    
    470.1178    
    422.7402    
    576.9496    
    485.0150    
    535.9221    
    429.4969    
    362.7043    
    486.8543    
    582.1437    
    485.3176    
    457.5499    
    424.9308    
    426.6183    
    501.8963    
    434.8890    
    598.8940    
    438.2623    
    381.2658    
    412.2715    
    404.1793    
    405.8650    
    461.3922    
    443.4808    
    464.7626    
    388.1831    
    433.8521    
    489.4321    
    525.4953    
    566.5433    
    445.4816    
    520.7183    
    473.3344    
    460.3228    
    486.5041    
    517.6273    
    392.0637    
    540.6447    
    498.1386    
    583.3729    
    491.6965    
    547.3724    
    558.8861    
    654.2411    
    626.2910    
    588.5364    
    570.5293    
    518.1736    
    564.0536    
    629.7596    
    616.6442    
    598.6171    
    649.6037    
    626.6133    
    638.1566    
    472.8362    
    626.7187    
    589.0026    
    610.3685    
    508.9126    
    628.5027    
    590.7946    
    567.8978    
    687.8229    
    536.9011    
    631.9617    
    618.8621    
    655.0315    
    651.7769    
    633.7396    
    674.8624    
    617.3981    
    540.5063    
    547.0833    
    696.3763    
    653.6453    
    655.3199    
    711.2823    
    594.7086    
    684.9992    
    652.1621    
    752.6052    
    764.1839    
    607.9896    
    792.3152    
    660.5280    
    637.5884    
    708.2558    
    695.1227    
    736.3016    
    762.7084    
    828.8380    
    726.4919    
    832.1805    
    958.4276    
    965.0992    
    792.5443    
    963.4394    
    985.1180    
    961.7816    
    928.4973    
    965.1210    
    941.8169    
   1098.8539    
   1050.2660    
   1046.9171    
   1164.3462    
   1035.2057    
   1122.3014    
   1154.2108    
   1125.6373    
   1061.9438    
   1174.3540    
   1206.3348    
   1202.9469    
   1265.3713    
   1358.5400    
   1263.6346    
   1326.2367    
   1317.7330    
   1243.3008    
   1260.1615    
   1414.4526    
   1380.3959    
   1295.5857    
   1353.1611    
   1426.2224    
   1417.6709    
   1307.3197    
   1477.2554    
   1386.9510    
   1403.9116    
   1543.8062    
   1432.7611    
   1373.2275    
   1451.4185    
   1483.7776    
   1464.9712    
   1507.5955    
   1432.5244    
   1505.7954    
   1620.5292    
   1468.1667    
   1623.8525    
   1584.3195    
   1606.5675    
   1474.8118    
   1512.3002    
   1529.3373    
   1618.3596    
   1476.3416    
   1580.5189    
   1561.6307    
   1573.5616    
   1657.5891    
   1685.0614    
   1738.4515    
   1688.3794    
   1736.5903    
   1769.3475    
   1848.9731    
   1845.4241    
   1836.6705    
   1874.7928    
   2028.2671    
   2061.4868    
   2163.4360    
   2271.2380    
   2438.5974    
   2924.1492    
   3467.5867    
   4044.3953    
   4447.3169    
   4568.6191    
   4787.5508    
   5181.7026    
   5426.5620    
   5086.1289    
   4385.8213    
   3465.4978    
   3119.3938    
   3076.6362    
   3039.5139    
   3019.0449    
   2915.9646    
   3233.5627    
   3414.9119    
   3377.1118    
   3777.0271    
   4256.0591    
   5231.3135    
   6911.7720    
   9766.2393    
  12715.9043    
  13775.5049    
  12554.5313    
  10758.1484    
   9956.3945    
  10547.1533    
  12316.7588    
  14467.7002    
  15176.9883    
  13866.5791    
  11765.0518    
  10458.9570    
  10273.9844    
  10413.3965    
  11246.2266    
  12649.0029    
  12797.5254    
  10855.9980    
   8592.9063    
   6932.8857    
   6086.9521    
   5457.9746    
   4946.5449    
   4597.6870    
   4521.6499    
   4428.1191    
   4662.6045    
   4815.0176    
   4938.1421    
   5166.5850    
   5404.0039    
   6008.1719    
   6545.6694    
   7071.4111    
   7299.2041    
   7515.7666    
   7406.1851    
   7023.5713    
   6416.8716    
   5835.3809    
   5135.4219    
   4813.8574    
   4569.1802    
   4392.5850    
   4477.2012    
   4550.2510    
   4403.4326    
   4193.3032    
   3979.7178    
   3917.8398    
   3994.5747    
   4595.9160    
   6146.0879    
   8643.1182    
  12057.0859    
  16867.1367    
  24552.1660    
  33680.6758    
  39823.8398    
  36082.6875    
  26968.9102    
  18639.0469    
  14318.1240    
  13693.9141    
  14682.6992    
  14532.9658    
  12272.1426    
   9266.3076    
   6671.2129    
   5343.6333    
   5233.9556    
   5527.6372    
   5794.0928    
   5637.6597    
   5240.5122    
   4779.1855    
   4571.3442    
   4933.5151    
   5620.6836    
   6583.1265    
   7799.9634    
   9152.5449    
  10180.2520    
  10931.1855    
  11141.6357    
  10967.7168    
  10541.4844    
  10284.5156    
  10134.2500    
  10344.0596    
  10678.6611    
  10525.2715    
   9950.6328    
   9043.9678    
   7957.2896    
   6742.0464    
   5852.4419    
   5302.8413    
   4846.9438    
   4567.3628    
   4221.7578    
   3928.2532    
   3627.9438    
   3232.4473    
   2975.6736    
   2873.8323    
   2616.5295    
   2607.4512    
   2678.8252    
   2621.4287    
   2623.0613    
   2630.0535    
   2749.9614    
   2800.1914    
   2688.6199    
   2625.8657    
   2472.7896    
   2252.5671    
   2154.6772    
   2052.1086    
   1955.2760    
   1951.7377    
   1876.0133    
   1867.3531    
   1776.6188    
   1824.3752    
   1826.0052    
   1740.6003    
   1742.2300    
   1759.1906    
   1817.1362    
   1777.7910    
   1794.7743    
   1781.0488    
   1859.5760    
   1825.2803    
   1950.3600    
   2091.8354    
   2334.1130    
   2643.5654    
   2936.3313    
   3333.1975    
   3440.5054    
   3582.0879    
   3702.0754    
   4144.0957    
   4578.7749    
   4818.6494    
   4611.6460    
   4225.9692    
   3672.2983    
   3112.4329    
   2804.3345    
   2650.2930    
   2657.2642    
   2906.4751    
   3274.5684    
   3768.4939    
   4003.9060    
   4022.7493    
   3921.2893    
   3786.3296    
   3822.0081    
   4063.7319    
   4146.0654    
   4275.2148    
   4091.6262    
   3632.3284    
   3129.0925    
   2805.0151    
   2539.4097    
   2214.7949    
   2112.3599    
   2124.3623    
   2240.5415    
   2122.4146    
   1902.1598    
   1704.7559    
   1630.3787    
   1551.2682    
   1482.5288    
   1564.5830    
   1510.8690    
   1472.3478    
   1448.9222    
   1440.5331    
   1442.1531    
   1503.9071    
   1525.6143    
   1522.2091    
   1533.8776    
   1420.2539    
   1532.0913    
   1463.4980    
   1620.9355    
   1668.0320    
   1649.4258    
   1782.8962    
   1779.4269    
   1821.7875    
   1818.3082    
   1911.8942    
   1816.4460    
   1915.1288    
   1896.2698    
   1933.7336    
   2069.0916    
   2262.6638    
   2421.3528    
   2709.0068    
   3115.1604    
   3952.5774    
   5044.2646    
   4985.6606    
   3872.1741    
   3519.8489    
   4178.3447    
   4729.3911    
   4542.1807    
   3609.9861    
   2551.4658    
   2041.7732    
   1843.6664    
   1998.7257    
   2155.0310    
   2115.2715    
   2044.6960    
   1902.7457    
   1812.6367    
   1677.4893    
   1593.4956    
   1600.1328    
   1516.4994    
   1623.4718    
   1675.4607    
   2079.8076    
   2466.5488    
   3022.9329    
   3573.6646    
   3912.5095    
   3948.1755    
   3595.2188    
   3325.5464    
   3327.1572    
   3695.0808    
   4253.9443    
   4575.5918    
   4436.8887    
   3774.5112    
   3074.7676    
   2599.8281    
   2511.7512    
   2560.7888    
   2562.3979    
   2696.3748    
   2539.2532    
   2300.0137    
   1956.1842    
   1734.2974    
   1655.2809    
   1692.1204    
   1835.3103    
   2046.1505    
   2217.8494    
   2564.2681    
   2976.2051    
   3358.6687    
   3642.6309    
   3913.8647    
   4074.5334    
   4087.5530    
   4089.1594    
   3886.3779    
   3859.7700    
   3720.9270    
   3722.5330    
   3679.4121    
   3475.5164    
   3159.3796    
   2657.0215    
   2364.6123    
   2061.2837    
   1838.6157    
   1598.5348    
   1580.1361    
   1472.0989    
   1488.6180    
   1450.4767    
   1626.5798    
   1743.7302    
   1968.3519    
   2041.4667    
   2161.1406    
   2291.9155    
   2512.5181    
   2608.7546    
   2557.7256    
   2728.2656    
   2857.5627    
   2816.5042    
   2764.9163    
   2793.0945    
   2730.9746    
   2537.4297    
   2330.2876    
   2187.1187    
   2060.3835    
   1883.7531    
   1865.0917    
   1710.3770    
   1631.7981    
   1454.2191    
   1510.3901    
   1368.4578    
   1498.6907    
   1416.0863    
   1392.9908    
   1384.7208    
   1440.6646    
   1496.7635    
   1518.2181    
   1450.4089    
   1476.7671    
   1414.0583    
   1410.7181    
   1372.8607    
   1522.8436    
   1499.6306    
   1466.5469    
   1647.1836    
   1519.3059    
   1665.3741    
   1641.9846    
   1788.9637    
   2212.8975    
   2599.0981    
   2913.0010    
   3275.5732    
   3495.9849    
   3903.5149    
   4291.1860    
   4780.7617    
   5150.7271    
   5122.3501    
   4580.7026    
   4099.4722    
   4095.3916    
   4079.9729    
   4126.9722    
   4009.6079    
   3636.5559    
   3140.8242    
   2563.3225    
   2155.9426    
   1782.2515    
   1534.3970    
   1333.8529    
   1409.1498    
   1405.8213    
   1432.0394    
   1413.9293    
   1534.0460    
   1471.3468    
   1591.8022    
   1833.3674    
   2077.9944    
   2059.2161    
   2030.2906    
   2047.1343    
   2191.6741    
   2477.2163    
   2974.1272    
   3950.4861    
   4867.0903    
   5267.8179    
   5179.3198    
   4561.9492    
   4499.8452    
   5232.0864    
   6687.3511    
   8129.4688    
   9121.3271    
   9064.0820    
   8134.2383    
   6643.5039    
   5303.3774    
   5023.8379    
   5469.9517    
   5814.9717    
   5467.0537    
   4336.4155    
   3405.1238    
   2300.1208    
   1614.6882    
   1301.3501    
   1181.3210    
   1009.1330    
   1020.3335    
   1142.4911    
   1202.2239    
   1369.5298    
   1617.4679    
   1783.4088    
   2184.3101    
   2453.3806    
   2673.7883    
   2833.2283    
   3058.0320    
   3519.5322    
   4082.4441    
   4732.3022    
   5380.8403    
   5834.5078    
   5762.0483    
   5241.2495    
   4393.2690    
   3330.6506    
   2583.0908    
   1964.4769    
   1561.8923    
   1381.6722    
   1193.4832    
   1035.9553    
    980.0084    
    967.2355    
    925.8168    
   1003.9160    
   1005.4993    
   1127.2571    
   1210.9948    
   1363.3066    
   1335.6224    
   1259.3802    
   1265.8169    
   1262.5450    
   1167.2910    
   1159.2163    
   1112.5892    
   1293.1588    
   1406.8571    
   1595.1334    
   1685.7920    
   1514.5492    
   1457.2343    
   1312.3699    
   1255.6866    
   1117.1926    
    994.0583    
   1048.3029    
    892.3267    
    974.9091    
    914.5142    
    949.4397    
    695.2791    
    720.3957    
    788.0305    
    784.8831    
    900.2084    
    859.0531    
    946.1967    
    900.1926    
    916.0332    
    870.1119    
    762.8857    
    656.2788    
    587.6317    
    542.5348    
    558.1022    
    555.0159    
    575.2586    
    586.1754    
    583.0815    
    570.6551    
    530.2820    
    513.2435    
    580.0515    
    586.2967    
    700.2478    
    678.3579    
    698.7050    
    719.0706    
    687.7773    
    689.3530    
    658.1162    
    669.0595    
    769.2917    
    855.8378    
    990.3472    
   1077.8728    
   1069.8781    
   1028.4503    
    863.7111    
    752.0743    
    645.7830    
    600.6479    
    752.0942    
    720.7814    
    741.1400    
    836.9156    
    843.2120    
    769.3663    
    728.6478    
    631.9046    
    489.2643    
    375.3265    
    381.5067    
    360.0555    
    398.4785    
    358.5976    
    327.9907    
    251.6400    
    230.3525    
    250.2086    
    210.6650    
    184.8751    
    168.2285    
    165.2468    
    134.9846    
    172.9410    
    174.5116    
    135.1536    
    163.9988    
    133.7511    
    153.4966    
    150.5217    
    129.3795    
