  11100 12  1   YSAG5    PUC    BMW  .000 U S1 021793 00.01   1        
  PROGRAM LAMBDA-9   VERSION 02.31                                     
  USER BMW DATE & TIME  1993 02 21 10.23 41.83    10.500    295K U     
 AU1 HO  50     0     0 YSAG             .520000 -  .570000 .00010     
 FILE NAME                                ON PC = YSAG5.SP             
 NO_POINTS  =   501.    pts   DATA_INTV =  .000100 æm                  
 MIN_LAMBDA =   .520000 æm     MIN_DATA =    .15690                    
 MAX_LAMBDA =   .570000 æm     MAX_DATA =    .57400                    
 SCANSPEED  = 15.000000 NM/MIN SLITWIDTH=   .00000 æm                  
  RESP TIME =   .5      sec SENSITIVITY = 5          DATE=93/02/17     
 16:09:42    93/02/17                                                  
  YSAG5                                                                
  This spectra is part of Database LASERS
 Database LASERS was created by Pat Cross working 
 at NASA Langley Research Center, Internal Operations Group,
 Aerospace Electronics Systems Division, Remote Sensing 
 Technology Branch. phone:(757)864-1633   fax:(757)864-7894 
     e-mail p.l.cross@larc.nasa.gov 
     homepage http://aesd.larc.nasa.gov/laser/dbmain.htm
  EOH     (1X,F11.4)                                                   
   501.         
    214.8870    
    133.3162    
     76.8040    
    114.9008    
     87.2281    
     92.4358    
     77.1294    
     90.5335    
    149.1064    
    129.6454    
    167.6947    
    168.7616    
    169.8280    
    199.6572    
    147.3493    
    168.9223    
    194.6032    
    199.7610    
    196.7119    
    177.2778    
    174.2457    
    175.3087    
    172.2828    
    152.9247    
    256.2821    
    163.2269    
    119.4807    
    198.0048    
    137.9213    
    257.3203    
    270.6244    
    230.7694    
    211.4114    
    245.0874    
    311.5180    
    275.7215    
    338.0847    
    290.0054    
    266.5389    
    267.5604    
    305.2792    
    253.3226    
    225.9051    
    316.4458    
    313.3691    
    294.0137    
    234.1101    
    357.1145    
    313.3023    
    338.7129    
    238.2449    
    308.1808    
    301.0674    
    334.5433    
    323.3572    
    401.5754    
    365.9351    
    358.7926    
    351.6589    
    295.9652    
    345.5214    
    318.1837    
    327.2660    
    364.6677    
    361.5986    
    338.3227    
    347.3892    
    392.8446    
    405.9519    
    350.3426    
    395.7400    
    469.5746    
    413.8299    
    362.3294    
    415.7413    
    428.8114    
    466.1382    
    326.0528    
    403.4378    
    464.8976    
    477.9504    
    499.0838    
    427.3944    
    484.7704    
    457.4741    
    458.4108    
    527.8994    
    549.0082    
    549.9060    
    526.5848    
    588.0701    
    572.7849    
    618.1433    
    610.9228    
    531.1177    
    592.4728    
    557.0745    
    545.8957    
    635.4634    
    531.6231    
    637.1859    
    686.5230    
    622.7803    
    643.7959    
    632.5661    
    641.4821    
    751.3571    
    849.5580    
    809.7063    
    818.6071    
    718.2557    
    852.6349    
    845.2870    
    915.1374    
    911.8110    
    786.9070    
    840.2712    
    828.9067    
    858.0089    
    838.5486    
    879.7819    
    904.8440    
    852.9904    
    987.5115    
   1028.9236    
    997.0649    
   1058.8280    
   1169.8594    
   1393.0336    
   1639.6198    
   2098.6409    
   2581.7703    
   3122.2644    
   3762.1394    
   4312.4858    
   4671.4219    
   4882.5166    
   5256.9014    
   5747.0313    
   6860.7266    
   8295.4707    
  10143.3906    
  12385.0566    
  14973.9951    
  17588.7109    
  19756.8906    
  20773.3457    
  19969.5527    
  17983.4297    
  14892.6592    
  11587.7305    
   9005.7764    
   7357.6670    
   6792.0059    
   7324.7412    
   8773.4648    
  10281.1982    
  10913.4023    
   9866.3828    
   7924.4492    
   6111.4492    
   5340.9209    
   5766.0405    
   7015.6870    
   8369.4814    
   9467.2539    
  10251.1709    
  10040.6211    
   8989.4463    
   7885.1523    
   7054.5913    
   6791.5391    
   7187.2236    
   8301.1475    
   9979.9063    
  12475.6797    
  15244.7158    
  17713.0977    
  20076.5469    
  21661.2031    
  22314.3730    
  21433.6055    
  18446.5430    
  14702.2988    
  11269.3232    
   9057.8467    
   7918.1064    
   7488.3110    
   7765.5186    
   8410.1572    
   9615.0781    
  10946.6963    
  12362.7822    
  13145.9551    
  12865.8848    
  11527.5400    
   9524.4658    
   8235.7373    
   6900.6553    
   6080.4849    
   5662.7119    
   5661.2427    
   5917.2144    
   6310.7944    
   6527.9229    
   6832.3672    
   6937.0088    
   6961.6167    
   6604.1021    
   6419.2100    
   6107.9570    
   6183.0967    
   6659.2666    
   7506.6025    
   8438.6904    
   9490.8496    
  10226.2002    
  10336.2988    
   9823.6094    
   8818.8965    
   7676.4429    
   6371.1587    
   5291.4951    
   4559.1108    
   4228.4077    
   4200.0840    
   4612.7119    
   4971.8267    
   5548.2041    
   5959.9961    
   6416.5430    
   6621.8027    
   6325.5771    
   5933.5498    
   5315.3315    
   4948.8721    
   4380.7139    
   4041.4121    
   3837.9333    
   3694.5237    
   3543.4871    
   3468.2878    
   3472.3218    
   3262.4563    
   3046.4788    
   2664.2473    
   2261.0518    
   1943.2246    
   1686.6300    
   1355.1698    
   1226.9697    
   1095.8785    
   1185.5149    
   1162.9128    
   1163.5586    
   1401.5970    
   1575.1646    
   1710.3661    
   1914.5927    
   2181.8413    
   2399.0518    
   2514.7708    
   2622.7693    
   2848.8145    
   2827.7175    
   2802.4648    
   2907.5752    
   2718.7051    
   2589.7854    
   2511.2878    
   2257.3984    
   2277.9399    
   2035.4755    
   2071.9482    
   2015.9856    
   2036.3390    
   2048.6653    
   2056.9749    
   2295.4785    
   2545.0232    
   2747.7095    
   2611.0627    
   2524.7043    
   2276.1135    
   2256.0708    
   2312.9448    
   2455.4919    
   2521.0193    
   2521.1038    
   2689.6980    
   2500.8347    
   2249.3904    
   2085.1282    
   1764.7324    
   1569.9352    
   1442.7251    
   1270.5708    
   1336.2056    
   1440.4822    
   1441.0197    
   1341.7712    
   1323.2267    
   1175.3733    
    987.4619    
    917.0447    
    709.7398    
    600.0819    
    659.7743    
    741.7700    
    838.8967    
    899.1624    
   1056.9030    
   1113.9531    
   1032.0520    
   1122.8136    
   1048.4292    
    888.8232    
    730.6814    
    694.7495    
    695.5832    
    630.4930    
    818.6528    
    742.1197    
    728.2490    
    670.4607    
    627.4817    
    400.0050    
    418.9650    
    448.7512    
    467.7255    
    382.2113    
    404.7263    
    502.9706    
    467.7936    
    443.5065    
    390.5500    
    369.9972    
    385.2788    
    404.1453    
    297.8780    
    323.8138    
    449.9926    
    365.0063    
    280.4676    
    210.5282    
    303.7654    
    233.7929    
    280.8697    
    328.0255    
    343.2197    
    512.0365    
    599.1917    
    567.6814    
    622.5377    
    558.6693    
    366.7553    
    282.6762    
    319.0351    
    224.6904    
    267.9869    
    329.0274    
    305.2561    
    214.6592    
    388.5595    
    354.1078    
    372.7534    
    359.5612    
    307.5944    
    248.7883    
    298.9879    
    338.6991    
    431.4954    
    517.5552    
    468.7663    
    544.2338    
    491.8625    
    510.5001    
    419.4179    
    300.7768    
    151.6483    
    114.4860    
      8.3380    
    137.3867    
    107.2300    
      0.0000    
     64.3914    
     89.6304    
     97.5952    
     67.5824    
     54.8583    
     28.3953    
    105.2480    
     64.9412    
     11.0227    
     67.0685    
    137.0292    
     62.3166    
     39.3505    
     13.0040    
     20.9329    
    111.2285    
      2.5671    
    109.8812    
    117.7983    
     98.2411    
      0.0000    
     79.7778    
      0.0000    
     37.4460    
    110.3374    
     53.2417    
     64.5508    
     24.6860    
     15.5462    
     20.0267    
    167.9533    
     93.7288    
     33.4565    
     44.7316    
     52.6015    
     23.0835    
      0.0000    
     35.4132    
     22.9149    
      7.0476    
    123.5884    
     63.4338    
     61.1012    
     35.0528    
     63.2212    
    115.1796    
     48.4108    
     86.7262    
     81.0006    
    183.9140    
     72.9530    
    104.4708    
    115.6768    
    113.3304    
     83.9299    
    101.8802    
     38.8085    
    131.0203    
    138.8207    
    163.5457    
    137.5023    
    175.7449    
     65.3830    
     16.0432    
    148.3766    
    176.4325    
    153.8057    
    114.3829    
    162.6033    
    170.3722    
    178.1383    
    105.0899    
    136.3844    
    187.9270    
    188.9380    
    156.2861    
    164.0351    
    107.9808    
    132.4917    
    120.1122    
    137.9072    
    175.8482    
    136.6155    
    107.5247    
    131.9774    
     56.2101    
    120.6664    
    101.6645    
    129.4151    
    133.7861    
    211.7777    
    142.5234    
    143.5508    
     97.9150    
    172.3059    
    226.8280    
    288.1750    
    185.3657    
    183.0396    
    180.7160    
    261.9151    
    179.4067    
    257.1904    
    214.7620    
    215.7609    
    206.7638    
    187.7930    
    275.4727    
    216.4279    
    200.7930    
    301.7847    
    226.0764    
    300.3824    
    274.6701    
    245.6861    
    206.8120    
