  11100 12  1   YSAG2    PUC    BMW  .000 U SI 021293 00.01   1        
  PROGRAM LAMBDA-9   VERSION 02.31                                     
  USER BMW DATE & TIME  1993 02 12 10.09 35.70    10.500    295K U     
 AU1 HO  50     0     0 YSAG            1.050000 - 1.250000 .00020     
 FILE NAME                                ON PC = YSAG2.SP             
 NO_POINTS  =  1001.    pts   DATA_INTV =  .000200 æm                  
 MIN_LAMBDA =  1.050000 æm     MIN_DATA =    .56580                    
 MAX_LAMBDA =  1.250000 æm     MAX_DATA =    .76580                    
 SCANSPEED  = 15.000000 NM/MIN SLITWIDTH=   .00000 æm                  
  RESP TIME =   .5      sec SENSITIVITY = 5          DATE=93/02/12     
 11:48:11    93/02/12                                                  
  YSAG2                                                                
  This spectra is part of Database LASERS
 Database LASERS was created by Pat Cross working 
 at NASA Langley Research Center, Internal Operations Group,
 Aerospace Electronics Systems Division, Remote Sensing 
 Technology Branch. phone:(757)864-1633   fax:(757)864-7894 
     e-mail p.l.cross@larc.nasa.gov 
     homepage http://aesd.larc.nasa.gov/laser/dbmain.htm
  EOH     (1X,F11.4)                                                   
  1001.         
    139.0882    
     24.8991    
     75.4612    
    212.8812    
    211.1813    
    241.1096    
    184.1003    
    122.0243    
    204.3878    
    244.8469    
    224.6915    
    215.0888    
    105.7375    
    143.3618    
    170.5479    
    134.7408    
    198.7023    
    141.8521    
    166.4043    
    167.3380    
    121.0655    
    242.8697    
    175.3903    
     82.0024    
    132.6587    
    178.1904    
    239.6306    
    264.2918    
    136.3917    
    147.8094    
    222.2953    
     99.9252    
    116.5541    
    264.6151    
    168.2111    
    208.5449    
    227.8925    
    231.4577    
    242.9212    
    235.9543    
    297.5361    
    316.9651    
    244.0186    
    247.5834    
    132.9809    
    175.8443    
    197.7775    
    172.4627    
    123.6240    
    216.3389    
    117.6415    
    265.5783    
    324.5743    
    249.0041    
    255.2028    
    240.3394    
    222.8612    
    260.6301    
    172.2232    
    217.7715    
    292.4184    
    201.2498    
    231.0790    
    260.9521    
    183.0540    
    339.3269    
    287.4570    
    225.2210    
    244.5540    
    190.3317    
    172.9136    
     98.0145    
    125.0590    
    194.0547    
    200.2304    
    198.5390    
    236.2256    
    192.5331    
    224.9505    
    278.4776    
    166.5056    
    159.5825    
    273.3699    
    242.7375    
    167.6080    
    223.5849    
    214.0173    
    228.0705    
    239.5052    
    177.4925    
    301.8784    
    218.6661    
    159.3484    
    225.7742    
     43.8778    
    149.0640    
    189.2374    
    211.1302    
    151.8520    
    186.7872    
    172.0140    
    199.1215    
    181.7218    
    216.7051    
    141.7521    
    108.7619    
    169.7415    
     55.9563    
    111.5483    
    172.5277    
    129.0536    
    213.6505    
    253.9258    
    291.6509    
    305.7374    
    131.0867    
    165.9558    
    206.1227    
    133.8715    
    158.2902    
     78.4257    
    126.2242    
    158.4638    
    175.0661    
    173.3802    
    252.8663    
    143.9041    
    131.7911    
    198.0085    
    175.4067    
    124.1480    
     86.0299    
     35.0217    
     43.7302    
     91.4129    
    136.6033    
    145.3521    
     86.3942    
    155.0328    
    223.9112    
    117.7931    
    163.0315    
     62.4544    
     81.5600    
    147.5535    
     99.0088    
    172.8846    
     51.5203    
    208.7033    
    173.0552    
    163.5444    
    154.0393    
     69.1241    
    103.8214    
    117.7511    
    121.2797    
    184.7591    
    102.3258    
    139.6765    
    132.7915    
    274.8116    
    192.0001    
    138.1729    
    110.4809    
     33.5758    
     44.8606    
    105.4606    
     75.2281    
     73.5590    
    103.0397    
     96.1733    
    149.1051    
    160.4490    
    169.1931    
    211.8656    
    152.8057    
    179.7889    
    115.6383    
    145.1692    
    159.1100    
    157.4303    
     93.3683    
    122.8600    
    136.7844    
    270.8096    
    227.2643    
    162.9780    
    223.8874    
    198.7088    
    254.4913    
    179.7001    
    138.9796    
    186.7614    
    140.8279    
     84.6374    
    171.2960    
    198.2781    
    118.5402    
    158.4511    
    143.7711    
    178.5197    
    179.4434    
    180.3670    
    186.5007    
    145.7894    
    264.0424    
    285.8990    
    278.9695    
    258.9668    
    246.8241    
    216.4227    
    219.9546    
    226.0948    
    151.4991    
    238.3810    
    174.1482    
    216.7458    
    173.3918    
    132.7381    
    245.6064    
    264.8151    
    257.8989    
    264.0464    
    168.5262    
    166.8483    
    180.7725    
    106.4040    
    161.8183    
    212.1766    
    184.4615    
    279.2659    
    267.1220    
    328.2252    
    436.9028    
    275.1129    
    328.3715    
    271.7316    
    330.2150    
    263.1277    
    235.3494    
    168.6058    
    265.8925    
    219.8730    
    306.9418    
    258.2153    
    340.2066    
    273.1111    
    308.0103    
    183.7716    
    288.9352    
    300.3121    
    220.3519    
    252.5402    
    250.8546    
    262.2083    
    284.0106    
    261.4407    
    304.1431    
    284.1622    
    238.1353    
    288.6138    
    328.7514    
    285.2326    
    325.3593    
    255.7659    
    324.5832    
    312.4269    
    261.1339    
    322.1129    
    323.0330    
    313.4943    
    301.3485    
    346.7260    
    316.2540    
    335.4799    
    221.6228    
    332.0863    
    346.0896    
    323.4654    
    405.6013    
    453.8376    
    305.3222    
    361.1600    
    422.4097    
    297.6372    
    382.2592    
    281.2146    
    266.4942    
    298.7035    
    276.1512    
    321.4302    
    382.5303    
    357.2599    
    449.9995    
    411.5134    
    412.4321    
    371.4064    
    380.1821    
    496.7167    
    502.9064    
    343.6827    
    347.2159    
    434.6136    
    315.0931    
    478.5217    
    418.9914    
    414.6613    
    518.1643    
    413.8754    
    469.9542    
    379.0259    
    359.0120    
    430.6650    
    366.0775    
    453.5102    
    454.4278    
    415.9715    
    414.2682    
    391.6029    
    340.2211    
    487.9410    
    436.2993    
    382.1833    
    383.1005    
    378.7855    
    463.6012    
    493.4442    
    528.6023    
    635.2664    
    551.5389    
    520.8119    
    545.4567    
    520.0103    
    499.8621    
    513.9420    
    493.8023    
    605.5220    
    712.5687    
    596.7742    
    783.7048    
    889.0503    
    889.9666    
   1031.0178    
   1113.2538    
   1152.2378    
   1251.3939    
   1222.2383    
   1340.9777    
   1281.5205    
   1298.8838    
   1368.4794    
   1328.1572    
   1334.5654    
   1456.7340    
   1303.4623    
   1241.4098    
   1198.6453    
   1117.9274    
   1154.1733    
   1046.5857    
   1025.8756    
   1121.5886    
   1084.5280    
   1020.5178    
   1094.4893    
   1114.3907    
   1120.7349    
   1154.2506    
   1174.2089    
   1169.6815    
   1192.3778    
   1125.3090    
   1153.3876    
   1146.1492    
   1109.0593    
   1153.4127    
   1129.8817    
   1109.0922    
   1080.2043    
   1083.8264    
   1106.4121    
    996.5143    
   1019.0003    
   1030.7079    
   1115.4916    
   1102.8528    
   1316.2865    
   1352.8531    
   1530.2625    
   1650.6846    
   1794.3201    
   1956.0215    
   2099.1033    
   2254.7600    
   2440.7153    
   2555.2764    
   2758.9358    
   2985.6897    
   3169.8267    
   3567.1987    
   3941.5447    
   4211.4751    
   4507.9048    
   4726.9531    
   4938.5957    
   5212.9556    
   5257.5820    
   5064.2319    
   4932.3154    
   4712.7944    
   4524.9214    
   4176.0337    
   3971.3657    
   3772.0061    
   3445.7793    
   3403.9021    
   3189.2766    
   3199.2466    
   3245.5144    
   3477.9006    
   3429.8464    
   3652.1021    
   3671.5754    
   3812.2825    
   3853.7703    
   3845.3110    
   3974.7021    
   3894.0388    
   3695.6282    
   3746.1743    
   3543.1692    
   3473.5276    
   3228.0310    
   3036.4802    
   2929.9800    
   2673.7881    
   2487.7546    
   2306.4192    
   2092.6187    
   1931.9525    
   1834.3230    
   1634.1135    
   1463.5240    
   1505.7864    
   1443.3285    
   1416.7540    
   1453.4034    
   1437.8115    
   1571.1501    
   1563.7573    
   1589.5912    
   1513.0726    
   1671.9404    
   1614.5022    
   1579.3828    
   1577.5240    
   1650.5533    
   1687.6267    
   1705.2498    
   1823.5652    
   2004.7821    
   2127.8018    
   2265.9519    
   2486.2009    
   2559.8174    
   2721.6655    
   2810.9351    
   2744.0662    
   2792.1006    
   2599.3647    
   2489.6665    
   2337.3738    
   2252.1072    
   2187.2129    
   2145.3281    
   2243.3748    
   2281.5574    
   2380.2937    
   2557.9871    
   2734.3987    
   2891.6904    
   3218.3086    
   3440.5110    
   3786.0159    
   3949.0605    
   4053.5818    
   4152.3418    
   4099.5273    
   3890.1716    
   3664.5967    
   3314.0916    
   3005.6670    
   2769.7351    
   2580.3560    
   2436.1721    
   2336.1702    
   2208.1172    
   2309.2532    
   2281.4714    
   2374.3416    
   2200.3286    
   2264.1382    
   2147.9871    
   2168.8296    
   2056.1047    
   2136.4839    
   1953.4115    
   1836.3759    
   1865.2985    
   1846.5912    
   1691.3020    
   1633.9645    
   1507.9060    
   1464.8483    
   1378.1300    
   1297.2522    
   1151.8262    
   1150.0353    
   1011.1026    
    950.4847    
    871.4376    
    795.3736    
    761.8777    
    776.0085    
    668.7434    
    685.4416    
    670.5571    
    700.4257    
    580.5102    
    550.0250    
    535.2535    
    538.7725    
    565.8179    
    477.9979    
    533.6574    
    610.4352    
    556.3703    
    583.4333    
    621.0198    
    669.1906    
    733.2986    
    710.4800    
    737.7491    
    746.5710    
    861.3050    
    883.4638    
    985.6438    
    957.1776    
    998.1473    
    942.9876    
    994.6126    
    934.1381    
    951.0377    
    890.7089    
    873.0171    
    781.2078    
    755.7045    
    835.9424    
    815.6597    
    798.0452    
    822.7656    
    776.0714    
    790.1855    
    793.7340    
    699.7170    
    724.3088    
    735.7505    
    644.6555    
    627.2137    
    696.3523    
    668.3589    
    629.9276    
    649.1785    
    826.5863    
    703.5045    
    641.4058    
    776.4398    
    640.5948    
    602.2335    
    595.2945    
    562.2470    
    511.0379    
    441.8127    
    476.4509    
    550.2144    
    447.1177    
    458.3962    
    508.6567    
    455.0164    
    474.0840    
    397.2628    
    408.5115    
    448.2589    
    340.5981    
    333.7709    
    388.8563    
    400.0977    
    331.3294    
    342.5385    
    276.5534    
    295.4417    
    291.2050    
    286.9682    
    298.1507    
    275.9322    
    269.1346    
    316.2883    
    322.3379    
    282.1114    
    329.2899    
    317.3278    
    320.8017    
    257.4973    
    343.1991    
    269.5610    
    247.3901    
    273.9317    
    315.9283    
    250.0970    
    317.7328    
    336.6419    
    298.9795    
    408.0626    
    424.4688    
    391.7936    
    415.9346    
    357.5029    
    299.2540    
    197.7212    
    183.3056    
    283.9933    
    254.1352    
    206.4372    
    317.5074    
    328.6898    
    342.4490    
    299.6665    
    277.4821    
    270.6927    
    400.1555    
    290.4415    
    311.8740    
    341.0414    
    295.7103    
    368.5761    
    256.5118    
    236.9447    
    366.1300    
    225.9647    
    401.4269    
    243.1054    
    238.8910    
    242.3489    
    222.8035    
    208.3847    
    275.7589    
    258.7394    
    321.1509    
    293.8343    
    205.2312    
    311.0200    
    304.2259    
    241.1262    
    252.2519    
    204.6290    
    164.7644    
    331.8177    
    319.8858    
    249.0819    
    283.2386    
    335.4168    
    421.2303    
    378.3397    
    376.6660    
    310.7959    
    280.9563    
    271.6204    
    287.8741    
    158.6502    
    284.5536    
    231.7798    
    171.5216    
    341.0758    
    331.7106    
    289.0492    
    348.9063    
    303.6478    
    402.1225    
    325.9464    
    275.6356    
    307.2429    
    274.8757    
    250.2245    
    299.6981    
    280.1287    
    350.1928    
    353.6582    
    318.6565    
    399.1388    
    461.8810    
    370.0899    
    417.2764    
    348.7834    
    421.6464    
    350.5796    
    369.4433    
    334.4267    
    414.9407    
    475.1254    
    308.9488    
    338.0179    
    354.2989    
    370.5937    
    386.8994    
    382.6600    
    455.6099    
    508.1403    
    416.1978    
    432.5381    
    490.1618    
    478.1525    
    582.5558    
    516.1098    
    408.7234    
    546.3662    
    518.8010    
    470.6357    
    642.5043    
    524.0779    
    631.2912    
    658.2090    
    656.5031    
    678.2400    
    645.2825    
    576.0610    
    652.2808    
    544.1840    
    581.3418    
    652.3673    
    585.7277    
    682.8051    
    722.8325    
    692.4170    
    800.5068    
    717.6870    
    734.2526    
    858.3329    
    859.2289    
    899.6075    
    900.5034    
    922.4888    
   1087.6353    
   1144.4866    
   1108.0602    
   1344.7771    
   1351.0657    
   1457.4432    
   1621.7679    
   1578.9457    
   1629.0315    
   1676.5010    
   1562.5364    
   1552.5284    
   1545.2507    
   1405.0309    
   1403.2236    
   1274.7985    
   1334.8562    
   1298.0812    
   1247.9708    
   1281.0638    
   1169.5029    
   1167.7294    
   1198.0084    
   1118.8704    
   1053.3275    
   1075.4573    
    946.6576    
    984.5171    
    953.7237    
    954.6181    
   1016.2948    
    927.4047    
    852.0504    
    905.4964    
    814.5191    
    812.7943    
    842.5108    
    694.5233    
    836.4340    
    950.3705    
    906.4933    
    997.0347    
    992.6440    
    972.4114    
   1150.9633    
   1045.5935    
   1027.9519    
    983.9050    
    911.0115    
    906.6461    
    781.7424    
    694.0307    
    720.9414    
    625.7454    
    598.1647    
    547.3969    
    579.2692    
    590.5002    
    627.6201    
    476.3076    
    508.0583    
    552.7548    
    558.8067    
    652.8168    
    542.5389    
    546.0099    
    595.9516    
    558.1108    
    698.8126    
    697.1062    
    729.2034    
    808.3300    
    798.7722    
    765.7423    
    792.7233    
    830.2001    
    755.3871    
    792.7887    
    663.6093    
    648.9526    
    673.1738    
    457.4367    
    496.8322    
    510.5748    
    391.0007    
    356.1560    
    362.1496    
    284.1259    
    417.5771    
    367.3758    
    319.8547    
    435.6058    
    423.7016    
    483.5273    
    382.0391    
    500.7153    
    517.0229    
    402.5893    
    423.9318    
    350.7918    
    344.0411    
    342.3850    
    307.6588    
    242.5805    
    327.2407    
    267.1714    
    270.5986    
    263.8822    
    252.1000    
    316.4361    
    246.2820    
    209.2212    
    235.4036    
    157.9975    
     60.8403    
     69.2546    
     62.6209    
    181.7338    
    114.6184    
     75.3245    
    164.2289    
    223.1785    
    130.7543    
    166.8988    
     19.6545    
    115.8211    
    187.2201    
    117.6006    
     93.3703    
     49.1307    
      0.0000    
     60.9283    
     36.7786    
    120.4242    
    108.7511    
     92.0678    
    140.6928    
    194.4814    
    177.7212    
    203.8286    
    136.7047    
     69.8212    
    166.1629    
    149.4327    
    152.8366    
    176.3855    
     96.8304    
    130.3581    
    148.8450    
    129.6239    
    158.1692    
    136.4262    
     84.6106    
     93.0191    
     43.8290    
     47.2172    
    143.3823    
     66.5089    
     99.9688    
    173.7163    
    119.3063    
    132.7472    
     93.4936    
     36.8239    
    127.8784    
     56.0988    
     51.9860    
    112.9763    
     26.2776    
    192.6676    
    261.6765    
    179.3368    
    205.4061    
    143.4012    
    131.7360    
    140.1544    
    118.4564    
     39.2593    
    150.3505    
    101.0669    
     54.4128    
     30.3264    
     98.7177    
    169.8633    
    102.9971    
     73.8479    
    137.3627    
    153.3120    
    199.4546    
    180.2142    
    120.8480    
     49.1817    
    122.6214    
     40.9692    
     54.3377    
     62.7192    
     71.1021    
     52.0038    
    168.0875    
    191.5950    
    127.2064    
    108.0527    
    123.9662    
    114.8339    
    155.8300    
    169.2687    
     52.4913    
     88.3499    
    109.2494    
    140.1937    
    123.5392    
    121.9217    
     67.7924    
     83.6659    
     92.0499    
     72.9456    
     83.8235    
     57.2430    
    165.7212    
    123.9977    
    119.8772    
    148.3152    
    222.0295    
    170.1479    
    163.5072    
    166.9012    
    187.8658    
     61.1069    
      7.1927    
     80.3460    
     16.4257    
    102.1005    
     45.5860    
    126.3769    
     82.2732    
    188.2963    
    201.7368    
    172.5022    
    138.3084    
    154.2196    
    132.5692    
    103.4504    
    146.8542    
     40.3715    
    101.1065    
     82.0191    
     33.0671    
     76.3039    
    159.6727    
    208.2107    
