  11100 20  1 01NYVO3.SP PYVO   MS  .0000 # S1 031188 00.01   1         
  PROGRAM PE-CONVERT VERSION 02.30                                      
  USER MS  DATE & TIME  1988 03 18 12.47 46.17    1.6000    295K C       
 AU1 ND 100     0     0 YVO4            0.325000 - 0.830000 .00020       
 FILE NAME ON PE-3600 = 001 NYVO3.SP      ON PC = 001NYVO3.SP            
 NO_POINTS  =  2526.    pts   DATA_INTV = 0.000200 µm                    
 MIN_LAMBDA =  0.325000 µm     MIN_DATA =   0.                           
 MAX_LAMBDA =  0.830000 µm     MAX_DATA =   .24619E6                     
 SCANSPEED  = .015      µm/min SLITWIDTH=  0.00020 µmITA =   0.          
       RESP =   0.5     sec        ISMS =   0.       DATE=88/03/11       
       INST = 509.                    ? =   0.                           
 THIS IS DATA TAKEN FROM A ND DOPED ORTHO-VANIDATE CRYSTAL               
 PROVIDED BY MILT BIRNBAUM. THE XTAL IS 1.60MM THICK AND                 
 HAS A BLUISH-VIOLETISH COLOR THAT IS NOT UNIFORM. IN                    
 ADDITION THE SURFACE POLISH WAS VERY POOR. THE SHORT WAVELENGTH         
 DATA I BELIEVE SHOW A SLANTED BASELINE DUE TO SCATTERING LOSSES         
 INTERNAL AND EXTERNAL.PLASTIC POLARIZERS WERE USED INSIDE P.E.          
 longside is identified as 'C' axis.(ã polar or extraordinary ray)       
 converted to AU by Mark Storm.  header added by hand                    
 ND:YVO4,1%ND,1.60MMTHICK,LONGSIDE,BIRNBAUM,SAME AS1                     
  EOH     (1X,F11.4)                                                     
  2526.           
 228488.9844      
 224479.0938      
 223611.9531      
 221901.9844      
 238771.8594      
 223822.3750      
 233878.4375      
 229523.3438      
 229152.8281      
 234119.5781      
 241107.1250      
 225668.4063      
 231134.6094      
 227891.2500      
 222200.8438      
 228854.1875      
 222736.8438      
 220224.4219      
 231007.4219      
 233823.7813      
 235076.9219      
 229112.3750      
 231445.9375      
 232450.8906      
 231075.3906      
 233483.0781      
 225659.5938      
 218549.2500      
 231120.1094      
 236231.9219      
 223759.0938      
 229414.4375      
 236052.8438      
 225200.6719      
 240009.6719      
 227212.5938      
 232594.9219      
 223661.9844      
 226696.1875      
 229121.8750      
 228567.0625      
 233050.9688      
 229534.1094      
 228411.8750      
 233894.7969      
 226771.3750      
 237705.1250      
 231916.8750      
 227906.1563      
 234770.2031      
 228112.9688      
 234584.6094      
 230988.3125      
 229650.4688      
 227048.5625      
 233603.3906      
 232807.2969      
 236958.2188      
 224582.4688      
 233644.6875      
 226928.0313      
 231865.0625      
 238089.0000      
 234708.5156      
 230145.8750      
 236189.6406      
 243350.3906      
 229603.6875      
 235172.9531      
 226837.2656      
 229066.4531      
 230987.8906      
 238189.6875      
 227792.2500      
 234818.8594      
 230447.9688      
 230074.3906      
 231632.2969      
 228397.0938      
 233038.6406      
 233450.3281      
 228986.9219      
 231096.0625      
 231690.7813      
 232489.1094      
 230545.4688      
 232508.3594      
 233922.5156      
 232726.2656      
 226310.2188      
 231954.1875      
 227233.7344      
 226338.7188      
 226348.1719      
 236262.0000      
 233998.4375      
 226736.6250      
 235662.0156      
 230861.2813      
 236519.6094      
 231656.3125      
 226423.0000      
 219793.3594      
 225196.7656      
 229580.9375      
 229213.6250      
 228106.6719      
 238741.3438      
 233512.8906      
 227766.3906      
 228884.9688      
 246193.7813      
 229653.8125      
 229098.9063      
 230431.6875      
 234589.0938      
 230449.6094      
 224797.7344      
 222241.2969      
 217882.2969      
 220442.5313      
 217743.9375      
 220623.1563      
 203473.1250      
 199169.8438      
 201177.8438      
 194506.0156      
 190259.9688      
 182718.0313      
 177526.0156      
 170574.4531      
 165591.6875      
 162246.0000      
 148462.0000      
 146300.3906      
 136504.6875      
 134716.0469      
 128644.1953      
 119943.5781      
 115466.8047      
 110867.2969      
 106035.4766      
 103245.2969      
  96985.4453      
  93620.5469      
  90125.2500      
  87315.0469      
  83148.9375      
  80062.3750      
  75810.0859      
  76091.3828      
  73098.5391      
  73398.9297      
  74967.7734      
  76075.9688      
  79251.0469      
  85555.3828      
  92901.5703      
 103377.3516      
 104819.9766      
  98859.5859      
  85895.9688      
  74898.7188      
  67847.3438      
  64563.6680      
  60448.7070      
  61694.5898      
  60840.9844      
  62351.6289      
  59623.3555      
  58968.5586      
  62246.5508      
  66498.5078      
  72725.3516      
  76768.8594      
  72877.9922      
  65127.6602      
  57183.0078      
  51658.7852      
  45690.8984      
  40253.8281      
  39453.4492      
  40441.1563      
  43408.5625      
  52987.3203      
  68329.8672      
  87479.4688      
  76432.5313      
  48172.0078      
  36450.6094      
  32388.9473      
  30538.1543      
  34393.1602      
  40497.3750      
  43283.0938      
  46736.0820      
  46066.7734      
  37236.7383      
  25574.6660      
  20793.6602      
  14864.5742      
  14262.3535      
  13348.7480      
  13479.2695      
  12867.2520      
  10658.4961      
   9973.8096      
   9143.1768      
   8383.0791      
   8939.0264      
   9230.6406      
   9254.2910      
  12438.7559      
  14029.1807      
  13658.8047      
  10579.3213      
   8305.4785      
   7332.6245      
   5044.5459      
   6329.6680      
   5227.9458      
   4968.5098      
   3710.0159      
   4957.0146      
   3488.9636      
   2736.7454      
   3848.3604      
   4369.4810      
   3892.3970      
   3190.1743      
   4456.1123      
   1426.8993      
   2770.4827      
   3731.3440      
   2991.6587      
   2697.4373      
   2906.4648      
   4135.3320      
   3630.4561      
   3877.5098      
   3101.8074      
   2223.3503      
   1835.7994      
   2943.9880      
   2995.1689      
   1914.2042      
   2208.1143      
   3054.7793      
   3488.1956      
   2767.1348      
   2347.0410      
   2559.2969      
   3058.2600      
   3153.8899      
   2407.6489      
   2150.6582      
   1614.1056      
   3731.9937      
   1328.5264      
   1739.9744      
   3298.7039      
   1844.9078      
    671.0959      
   4307.5649      
   4137.9551      
   1272.9666      
   1553.4220      
   1762.5342      
   1580.6713      
   2046.5880      
   1396.1085      
   2512.4524      
   2347.8599      
   2554.4595      
   2889.4392      
   2011.7554      
   2798.8101      
   2805.0779      
   2546.7332      
   2075.6096      
   2106.1045      
   1715.5226      
   2337.3557      
   2124.7161      
   2281.5632      
   2219.6414      
   2425.4094      
   2382.7976      
   1869.7336      
   2678.2900      
   2104.6277      
   1834.9086      
   2588.9722      
   1553.2327      
   2332.9268      
   2685.3699      
   2126.4392      
   2736.5684      
   2327.8357      
   2436.0417      
   2539.5117      
   2117.6284      
   2342.0137      
   2503.7429      
   3131.8191      
   2369.5332      
   2278.2578      
   2352.1687      
   2144.5437      
   2363.9272      
   2491.4241      
   2731.4885      
   2337.7441      
   2159.2603      
   2675.6829      
   2035.4198      
   2070.2131      
   1887.7217      
   2004.4626      
   2029.5302      
   2369.4661      
   1766.2853      
   1757.5801      
   2581.1858      
   1687.3124      
   2300.9768      
   2248.4932      
   1512.5719      
   2245.2822      
   2154.1411      
   2460.3003      
   1837.4415      
   1684.5170      
   2627.9431      
   2129.0308      
   1975.3698      
   2116.0193      
   1472.9624      
   1958.3193      
   2045.7859      
   1853.8844      
   2066.4648      
   1821.6438      
   1664.0013      
   1967.2826      
   1977.5684      
   1930.0811      
   1743.3871      
   1676.9224      
   2492.4238      
   2192.8279      
   1774.6715      
   2314.8174      
   1790.2513      
   1891.6464      
   1599.8274      
   1815.9431      
   2056.8306      
   2337.2988      
   1325.4006      
   2227.1133      
   1991.4757      
   2040.0710      
   1896.3307      
   1661.9928      
   2210.0938      
   1514.8688      
   1553.5168      
   1654.2919      
   1444.7498      
   1564.4098      
   1569.6123      
   2624.1191      
   2126.5115      
   1594.7089      
   1542.6129      
   1471.4987      
   1433.7817      
   1605.7529      
   1325.1438      
   1549.2023      
   2133.9229      
   1803.0426      
   1483.4794      
   1693.6528      
   1856.5750      
   1223.0946      
   1761.3943      
   1275.8632      
   2049.4084      
   1809.9633      
   1681.1600      
   1719.5800      
   1729.3531      
   1968.8311      
   2556.6855      
   1935.6305      
   2060.4822      
   1188.2874      
   1635.0199      
   1606.5825      
   1878.8977      
   1487.8888      
   1826.5259      
   1440.6423      
   1512.0663      
   2296.9688      
   1946.4952      
   2210.4421      
   1970.5591      
   2008.9270      
   1827.1467      
   1793.7592      
   1536.5079      
    855.6600      
   1937.1958      
   1569.8958      
   1394.2004      
   1200.0950      
   2128.7461      
   2123.9011      
   1389.4946      
   1579.3767      
   1565.0773      
   2056.5071      
   1541.2324      
   1545.9259      
   1626.6694      
   1522.0358      
   1674.0719      
   1850.3037      
   1011.1811      
   1950.3372      
   1649.8370      
   1265.6766      
   1549.7891      
   1497.4518      
   1587.4901      
   1672.8799      
   1653.6891      
   1677.2875      
   1397.1570      
   1297.6510      
   1217.1893      
   1202.8518      
   1543.2928      
   1752.1370      
   1254.1882      
   1808.7778      
   1390.8015      
   1632.2885      
   1893.7378      
   1745.8136      
   1536.5950      
   1210.0935      
   1285.3146      
   1365.3408      
   1473.8502      
   1416.7622      
   1383.3553      
   1293.3016      
   2043.1417      
   1952.0840      
   1561.8831      
   1419.5215      
   1475.9285      
   1869.5288      
   1267.3632      
   1219.8611      
   1663.9301      
   1431.4689      
   1459.4338      
   1274.8856      
   1671.7336      
   1562.2847      
   1462.4854      
    981.7083      
   1084.5809      
   1361.9667      
   1479.5967      
   1097.3805      
   1464.4692      
   1586.9751      
   1288.9141      
   1680.7233      
   1557.0616      
   1864.8352      
   1688.6239      
   1319.4113      
   1720.7285      
   1843.5917      
   1942.8755      
   2756.5398      
   4382.1421      
   3419.1160      
   2557.2390      
   1437.6265      
   1706.5900      
   2110.0830      
   1653.2583      
   1794.8219      
   2055.6819      
   2121.7415      
   2590.1655      
   1839.6744      
   1934.0085      
   1677.1589      
   1766.4968      
   2260.7471      
   1519.1285      
   1740.7283      
   1782.6766      
   1767.7415      
   1398.4855      
   1723.6636      
   1190.1753      
   1599.2252      
   1428.6353      
   1277.3149      
   1436.6005      
   1799.7125      
   1406.8531      
   1764.9976      
   1367.6821      
   1858.2024      
   1361.4537      
   1999.0002      
   1822.5894      
   1618.3469      
   1664.7817      
   1522.3424      
   1790.8502      
   1421.7811      
   1689.8163      
   1307.2834      
   1915.3885      
   1762.9115      
   1951.5789      
   1633.5554      
   1604.3611      
   1712.0995      
   1763.2126      
   1752.8530      
   1638.5537      
   1623.4915      
   1806.8649      
   1952.7977      
   1876.0142      
   2098.0869      
   1303.6300      
   2138.9207      
   1518.0187      
   1937.5313      
   2102.6672      
   2253.9197      
   2429.3923      
   3269.8689      
   3647.4868      
   5039.9399      
   6965.1802      
  10790.9941      
  16969.2324      
  19087.2090      
  13416.2725      
   7784.7363      
   4461.2490      
   3277.8557      
   2622.0776      
   2444.0525      
   2123.9019      
   1923.6525      
   1875.2402      
   2111.0933      
   1726.6115      
   1791.6061      
   1653.6946      
   1596.0848      
   1646.7850      
   1344.9009      
   1541.0186      
   1323.9651      
   1379.1222      
   1410.8467      
   1447.2677      
   1554.2028      
   1859.4458      
   2361.1284      
   2713.3420      
   2230.2466      
   1694.3357      
   1688.4434      
   1087.1887      
   1230.8340      
   1304.5345      
    971.8954      
    766.2244      
    653.8109      
    889.3340      
    841.7015      
   1157.2013      
    663.1048      
   1220.1924      
   1069.6366      
    682.7600      
    983.3943      
    838.0673      
   1190.7384      
    993.7165      
   1085.6414      
    898.2500      
   1251.1592      
   1226.5420      
   1403.0093      
   1004.8954      
   1227.4052      
   1072.2153      
    987.1527      
    651.8837      
   1142.9467      
   1076.4070      
    958.7930      
    938.9088      
   1212.3672      
   1010.6985      
    767.9898      
    929.0597      
    663.5531      
    982.1877      
   1045.9624      
   1151.7295      
   1029.3340      
   1004.7379      
    915.1170      
    899.8470      
   1168.2271      
   1106.2952      
   1049.0836      
    866.5767      
   1130.0864      
   1124.0402      
   1020.2905      
    912.0942      
    892.1423      
   1230.2317      
   1070.4669      
    762.8605      
   1160.7078      
   1215.1774      
    948.6357      
   1324.2330      
   1364.8009      
   1130.2025      
   1147.3639      
   1215.7560      
   1195.6555      
   1315.3905      
   1043.8341      
    930.9622      
   1404.2888      
   1332.7327      
   1415.2742      
   1278.3945      
    835.5452      
   1233.4135      
   1311.1390      
   1262.9827      
   1191.5869      
   1390.5157      
   1379.6237      
   1424.7720      
   1535.4172      
   1697.8254      
   1846.5247      
   1953.1567      
   1876.2255      
   1771.2043      
   2132.2043      
   1946.6436      
   1992.1072      
   2325.8833      
   2305.2578      
   2355.6846      
   2796.2300      
   3009.6008      
   2873.9380      
   3404.7283      
   3576.6187      
   3705.3777      
   4028.7205      
   4060.9314      
   3995.8293      
   3659.3743      
   3392.1284      
   3265.2454      
   3153.0117      
   2592.5498      
   2833.6658      
   2755.5769      
   2687.1094      
   2942.8718      
   2874.1934      
   3068.4011      
   3479.7141      
   3709.6177      
   3954.9077      
   4352.4526      
   4223.5767      
   4333.8916      
   4704.2847      
   4904.0737      
   5302.5977      
   5454.5142      
   5581.8608      
   5699.4717      
   5294.4004      
   5431.3379      
   5255.5757      
   5159.4336      
   4640.0474      
   4839.4980      
   4817.7715      
   4914.1938      
   5139.1938      
   4914.9976      
   5387.6924      
   5350.8457      
   5721.9023      
   6115.2178      
   6566.5928      
   6827.9165      
   7120.9150      
   7955.8608      
   8859.7061      
   9707.5586      
   8991.3691      
   7714.2778      
   6226.0679      
   5166.8647      
   5016.5913      
   4332.7256      
   4281.8862      
   4309.0449      
   4575.6680      
   4256.1348      
   4215.0845      
   4706.5200      
   4748.5459      
   4599.3154      
   4940.8789      
   5447.8682      
   6154.4131      
   7159.0459      
   9861.4746      
  14083.1299      
  21525.7012      
  30632.3965      
  30553.5039      
  22693.4160      
  15049.8350      
  10426.1689      
   7377.7021      
   5341.7769      
   4133.0361      
   3714.5681      
   3385.2327      
   2729.1155      
   2860.1567      
   2653.8071      
   2965.5208      
   3331.4873      
   3329.3623      
   3576.9856      
   2823.8599      
   3045.6121      
   2554.0073      
   2665.6301      
   2801.1938      
   2956.0920      
   3725.6072      
   4222.0869      
   4693.1001      
   5727.7534      
   6396.0986      
   8585.2783      
  10929.4316      
  10829.3271      
   9824.6250      
   9345.4209      
   8718.2949      
   7577.4824      
   5641.7817      
   4306.8901      
   4003.7336      
   3562.5042      
   3416.2415      
   3466.7908      
   3220.2979      
   3717.1672      
   3163.3167      
   3842.8533      
   4598.1694      
   4978.0674      
   4344.8560      
   3511.2502      
   2911.7644      
   2022.0001      
   1954.2634      
   1737.1057      
   1307.1948      
   1569.7457      
   1511.8099      
   1263.8019      
   1016.7957      
   1014.6965      
   1146.4465      
   1209.0386      
   1285.5830      
   1524.6820      
   1457.4919      
   1418.2086      
    967.6248      
   1136.1443      
   1300.4877      
   1182.6801      
    931.4636      
   1173.7522      
   1028.5166      
   1017.1494      
    913.6896      
   1072.7688      
   1287.7616      
   1151.5050      
   1292.6453      
   1359.9108      
   1566.5215      
   1355.5011      
   1149.8214      
   1032.3145      
   1085.4412      
    949.6531      
    892.2788      
    811.9888      
    768.5026      
    867.3177      
    654.1304      
    656.5258      
    805.6232      
    734.6161      
    759.9263      
    895.4484      
    659.2986      
    886.4136      
    719.0091      
    964.7170      
    842.9980      
   1006.2581      
    916.6249      
    781.2430      
    870.7960      
    863.9587      
   1105.5400      
   1135.5442      
   1041.1107      
   1195.5793      
    921.5901      
   1034.2988      
   1064.2499      
    997.5288      
   1096.5345      
   1002.1639      
   1105.7660      
    772.6136      
    949.3176      
   1131.1161      
   1142.6365      
   1094.2480      
   1004.4888      
   1149.5166      
   1073.4893      
   1167.9208      
   1142.5435      
   1223.2163      
   1359.4629      
   1126.3229      
   1368.6221      
   1357.0172      
   1437.9297      
   1472.6095      
   1470.2268      
   1681.2550      
   1618.4778      
   1839.2937      
   1967.4504      
   1759.9862      
   1990.5996      
   1866.8934      
   2360.3425      
   2259.3315      
   2322.5422      
   2385.8093      
   2850.1523      
   2771.9612      
   2755.2712      
   2781.1052      
   3272.1406      
   3469.9846      
   4082.1372      
   4002.3398      
   4265.3511      
   4743.6890      
   5171.6265      
   5222.9375      
   5565.1270      
   5750.3960      
   5841.8335      
   6417.3369      
   6902.1763      
   7783.6738      
   8150.3301      
   8591.6689      
   9676.4443      
   9942.9375      
  10551.9941      
  11453.9844      
  12187.6484      
  13163.7773      
  13361.4307      
  14055.5527      
  15147.6533      
  15815.3320      
  16437.2617      
  16952.7266      
  17508.2930      
  17924.2207      
  18385.3184      
  18587.7891      
  18535.1934      
  17842.4824      
  17145.5215      
  15865.5938      
  15017.8174      
  14119.1357      
  13144.0332      
  12162.0283      
  11781.3203      
  10997.8457      
  10640.2529      
   9945.0186      
   9672.4395      
   9123.5762      
   8470.8623      
   8426.4287      
   8284.0234      
   8239.7197      
   8670.6943      
   8527.7305      
   9096.2490      
   9533.1113      
  10440.6289      
  12167.7100      
  14147.1475      
  16501.8711      
  17493.0293      
  15932.7139      
  14342.3379      
  13224.9053      
  12105.2559      
  11910.4492      
  12383.7178      
  12827.3213      
  14178.7725      
  15121.7773      
  16954.6094      
  18574.9473      
  21187.0547      
  24457.5625      
  27179.6113      
  27931.6328      
  26003.3477      
  23328.5586      
  20807.7500      
  18615.2227      
  16832.7461      
  15967.0703      
  15701.8057      
  15535.8896      
  16042.9082      
  16407.3008      
  16773.8105      
  16669.7246      
  16074.1016      
  14254.5146      
  12349.0400      
  11224.1553      
   9965.7090      
   9388.7568      
   9275.5664      
   9418.8506      
   9804.5400      
  10028.3379      
  10040.8633      
   9494.7861      
   8569.7705      
   8159.5400      
   7345.1963      
   6978.2114      
   6318.5400      
   5912.9746      
   5815.9092      
   5709.1221      
   5258.4941      
   5025.5869      
   5223.1187      
   5039.1665      
   5275.9277      
   5101.6084      
   5035.1118      
   5458.3481      
   6127.4287      
   6328.3857      
   6680.1631      
   7494.3042      
   8144.4497      
   8988.3203      
  10869.5625      
  14110.5635      
  22438.0020      
  29159.7539      
  21114.6230      
  12408.8213      
   7939.2026      
   5819.8345      
   4913.9995      
   4735.8892      
   4635.8262      
   4744.4517      
   5341.7378      
   6546.7363      
   8555.1357      
   8794.8945      
   8533.0117      
   9339.8428      
  10694.3389      
  11221.8359      
   9659.7578      
   7574.4429      
   5492.6670      
   4340.5181      
   3828.2578      
   3415.1689      
   3531.1707      
   3537.7500      
   3984.0313      
   4748.2886      
   5217.9326      
   5356.8545      
   4685.7754      
   3715.5007      
   3660.0291      
   3380.9905      
   3292.6177      
   3474.8782      
   3719.7090      
   3559.3665      
   3842.7615      
   4629.2041      
   4800.7627      
   5388.1685      
   5478.2612      
   5098.2163      
   5266.1392      
   5385.4575      
   5983.2422      
   6827.0938      
   7332.5269      
   8626.9990      
  10792.8369      
  14216.2676      
  18899.7324      
  25586.6504      
  29796.5547      
  30336.5996      
  25652.8750      
  20367.3984      
  15523.3271      
  11588.3896      
   8584.3076      
   6761.3555      
   6055.7983      
   5938.7720      
   6696.4595      
   7920.9395      
   9813.3779      
  10237.2510      
   8629.0820      
   6985.9019      
   5443.7207      
   4245.8540      
   3250.2161      
   2442.9084      
   2132.2939      
   1638.4249      
   1350.1697      
   1278.4426      
   1404.0981      
   1002.6846      
   1205.6095      
   1106.6060      
    870.9355      
    690.6436      
    728.6837      
    980.8727      
   1073.8947      
   1368.7654      
    981.3431      
   1211.6051      
    911.7256      
   1027.4552      
    814.8699      
    680.1629      
    613.7580      
    343.8571      
    598.9390      
    650.4960      
   1080.2065      
    849.2617      
   1147.5189      
    263.5370      
    772.3229      
    755.7893      
    966.8574      
   1068.9098      
   1088.8274      
    926.1968      
   1064.6907      
    838.3899      
   1150.2224      
   1325.8734      
   1080.3551      
   1251.2118      
   1569.6686      
   1181.2256      
   1356.9248      
   1202.7649      
   1231.8436      
    768.2344      
   1033.9595      
    944.3709      
   1064.5707      
    906.5944      
   1296.4697      
   1316.4019      
   1230.9801      
   1590.6145      
   1481.8322      
   1511.0044      
   1457.4513      
   1234.3802      
   1479.0115      
   1004.5782      
   1129.3965      
   1405.7081      
   1265.2015      
   1404.2809      
   1300.4115      
   1540.6440      
   1386.0732      
   1488.6376      
   1481.0189      
   1772.6583      
   1608.3080      
   1803.4849      
   1758.8929      
   1792.7628      
   1993.1183      
   2166.2407      
   2265.3884      
   2150.7815      
   1620.7745      
   1719.0499      
   1970.0339      
   1630.0168      
   1751.3527      
   1734.4528      
   1276.6356      
   1788.2712      
   1859.0552      
   1754.4395      
   1774.4191      
   1817.4871      
   2068.7683      
   1709.8522      
   2044.0225      
   2305.4983      
   2088.7754      
   1849.7139      
   1934.4084      
   2051.6245      
   1808.1082      
   1768.1110      
   2000.6077      
   1881.8893      
   1593.0593      
   1912.6245      
   1895.6482      
   1818.6626      
   1991.1194      
   2131.5801      
   2193.3943      
   2069.6858      
   2085.0803      
   2300.0752      
   2199.3647      
   2507.9514      
   2197.6914      
   2259.5469      
   2103.2732      
   1947.3895      
   2064.5339      
   1876.4355      
   2062.8616      
   2221.9751      
   2442.0173      
   2136.7722      
   2449.6223      
   2479.0486      
   2634.5215      
   2589.2751      
   2955.9880      
   2723.0674      
   2645.0342      
   2688.5571      
   2839.8333      
   3047.8682      
   2763.1035      
   2933.3081      
   3108.6753      
   3114.8245      
   2698.7075      
   3500.1804      
   3586.9363      
   3346.9619      
   3305.8931      
   3524.8877      
   3692.3567      
   3225.2754      
   3567.1011      
   3578.0088      
   3812.1931      
   3737.5205      
   3724.6907      
   4318.1748      
   4598.4648      
   4421.8359      
   5002.5527      
   5144.7676      
   5243.4727      
   5704.1958      
   6000.5605      
   6526.4756      
   6741.9165      
   7018.1567      
   7119.8071      
   7156.3325      
   7717.3232      
   7435.7817      
   8182.6519      
   7888.8584      
   8297.7813      
   8735.1084      
   8901.4111      
   9849.0830      
  10355.4424      
  10993.8301      
  11396.6611      
  11839.9355      
  12849.8867      
  13921.0898      
  14727.1162      
  16346.3008      
  17562.4453      
  19288.1152      
  20981.2773      
  24094.3398      
  27948.5078      
  33545.3906      
  40457.4180      
  47594.1484      
  54218.8750      
  60642.1641      
  68694.8438      
  77722.6797      
  80159.8281      
  72876.8438      
  61456.7930      
  50236.6719      
  42344.8320      
  36370.8867      
  32508.3828      
  30277.8809      
  30054.5664      
  30193.5098      
  32709.6836      
  35166.2383      
  39498.1406      
  45360.5273      
  53438.8750      
  61546.0469      
  66141.3828      
  64943.2031      
  61502.1719      
  56649.1445      
  50801.3438      
  46377.1602      
  42970.6211      
  42431.8867      
  42468.4805      
  45127.4688      
  49413.9023      
  54431.0234      
  58560.0547      
  59770.9727      
  56597.2852      
  49361.3516      
  42153.4883      
  37108.2734      
  33256.7734      
  31465.2793      
  31703.6621      
  33336.8281      
  36598.9219      
  41196.1680      
  47692.3242      
  56192.8945      
  66693.0000      
  79862.9141      
  95550.7422      
 112334.3828      
 130875.5391      
 144524.7500      
 152351.7344      
 155231.2969      
 155072.1250      
 156806.6250      
 160717.2031      
 168160.3594      
 176761.8906      
 178370.7188      
 172953.1719      
 160665.1250      
 153656.4063      
 155566.2344      
 161314.7813      
 168434.5156      
 170520.4219      
 166998.7031      
 156221.9219      
 142157.1406      
 128726.5547      
 120071.9453      
 118269.3281      
 125255.3125      
 140238.8906      
 158954.5781      
 176558.3125      
 189017.8594      
 195808.7344      
 194894.5781      
 187209.8906      
 172837.5469      
 151425.3438      
 127631.6641      
 105227.2500      
  86092.7969      
  70188.5000      
  57477.0859      
  48762.6797      
  43282.6875      
  39727.8867      
  37852.1445      
  38025.4258      
  39917.3242      
  43413.9023      
  46334.9844      
  46364.3242      
  43956.4492      
  37967.1719      
  33516.6211      
  28687.4238      
  25426.6738      
  23246.9395      
  21065.6641      
  19528.9258      
  18375.5547      
  17911.3262      
  17332.6172      
  17463.5410      
  17293.8145      
  17483.6660      
  17674.0801      
  17132.8281      
  16578.7813      
  16052.7002      
  14768.9590      
  13422.5332      
  11715.7754      
  10432.9912      
   9559.6768      
   8096.1406      
   7179.6040      
   6667.3345      
   5859.5786      
   5504.0254      
   4802.5952      
   4596.9351      
   3957.8728      
   3461.9080      
   3223.0432      
   2999.1226      
   2790.0159      
   2609.5105      
   2825.0381      
   2356.5413      
   2108.0491      
   1957.1321      
   1792.8121      
   1670.1517      
   1620.9371      
   1704.5660      
   1321.8473      
   1036.6377      
   1360.6278      
   1339.0067      
   1280.9486      
   1186.5732      
   1265.0533      
   1098.0385      
    764.1970      
   1263.9717      
   1010.7829      
    790.2260      
   1149.2111      
    387.3540      
    437.8849      
    650.4587      
    940.6628      
    996.1526      
    608.8429      
    695.6010      
    408.8263      
    991.6528      
    879.6382      
    722.7018      
    319.1855      
    463.8971      
    681.0110      
    547.0649      
    489.7589      
    119.0334      
    559.4498      
    885.2996      
    678.7719      
    522.3583      
    550.4589      
    273.3658      
    503.2471      
    280.0789      
    133.6091      
    457.1921      
    238.6723      
     83.3757      
    644.9073      
    394.3304      
    489.7063      
      0.0000      
    267.7179      
    201.7193      
    741.6981      
    765.3613      
    752.9296      
    286.6708      
    619.9592      
    351.5834      
    218.3845      
    830.6463      
      0.0000      
     56.4260      
    523.1135      
    744.7706      
     37.4169      
    562.3497      
    906.0771      
    821.3264      
    516.1764      
    494.8061      
    142.1075      
    771.5209      
    300.7701      
    114.1115      
    887.6386      
    974.6334      
    533.8195      
    890.8746      
   1272.6888      
   1675.1388      
   3040.8459      
   3501.9265      
   4028.1487      
   2969.2715      
   2407.6787      
   1403.0653      
   1018.1196      
    951.3121      
    816.8503      
    669.1767      
    846.0580      
    509.4424      
    371.4579      
      0.0000      
    508.1302      
    774.6583      
    829.8448      
     81.7420      
    687.7087      
    455.0648      
    861.1469      
    488.5754      
    471.6726      
    320.3600      
   1064.3112      
    304.5555      
    664.5862      
    226.1528      
    581.2283      
    721.7458      
    394.8426      
    346.6123      
    249.2326      
    483.1465      
    475.2088      
    872.2723      
    778.5780      
    491.7794      
      0.0000      
    723.0972      
    895.4977      
    370.3809      
    210.4176      
    758.7438      
    579.7993      
    446.1829      
    210.0466      
    403.4169      
    579.3988      
    625.3575      
    527.5483      
    148.1973      
    381.6307      
    288.6847      
    828.5723      
    281.7708      
    180.0474      
    840.6343      
    959.0313      
    640.0077      
    731.0020      
    153.8573      
    499.3202      
    450.9995      
    130.1152      
    727.0258      
    319.6882      
    535.7477      
    241.2387      
    340.5866      
    363.9624      
    329.1660      
    801.5900      
    933.4193      
    772.0410      
    342.0840      
    320.7198      
    883.2224      
    407.7197      
    386.3301      
    750.9673      
    348.0246      
    559.6255      
    560.6111      
    682.9109      
      0.0000      
    290.3493      
    237.7321      
    337.0255      
    476.7959      
    209.4220      
     76.6515      
    515.5972      
    637.7835      
    652.2369      
    594.8108      
    591.2925      
    198.3916      
    777.5978      
    383.5350      
    478.5401      
    448.1502      
    583.6422      
    257.7626      
    590.0572      
    232.9043      
    166.9531      
    346.5224      
    602.8871      
    693.7092      
    753.1531      
    484.6541      
    508.0197      
   1026.6422      
    644.5623      
    636.5305      
    292.5639      
    159.6385      
    621.4243      
    752.7377      
    627.8153      
     43.2047      
    459.2874      
    151.9630      
    734.9750      
    359.1978      
    319.9165      
    204.7790      
    268.1936      
    888.3132      
    328.1453      
      0.0000      
    138.1657      
    344.3689      
    349.7702      
    189.9961      
      0.0000      
    294.4955      
    250.7828      
    439.4280      
    534.4272      
    137.6537      
    147.4932      
     72.7234      
    461.9808      
    669.2038      
    544.4740      
     23.0532      
      0.0000      
    127.2328      
    530.2364      
    540.1226      
    576.9078      
    501.6238      
    163.0145      
      0.0000      
    115.8594      
    335.2971      
    394.3141      
    265.6839      
    141.7748      
    338.9471      
    505.3738      
     91.0832      
    274.6984      
    128.5072      
    603.1367      
    442.7573      
      0.0000      
    194.4901      
      0.0000      
    558.3369      
    559.2382      
    305.1499      
      0.0000      
    306.9480      
      0.0000      
    268.5809      
      0.0000      
    319.4643      
      0.0000      
    107.2984      
    505.4678      
     95.7326      
      0.0000      
      0.0000      
    182.9882      
      0.0000      
    470.5186      
    332.8325      
    137.5494      
    365.8669      
     63.6956      
     33.4705      
    435.5639      
    217.6826      
    432.8524      
      0.0000      
    367.5665      
    511.5594      
    141.9096      
    209.5804      
      0.0000      
     51.1302      
    216.6650      
    284.4139      
    343.3016      
      0.0000      
    122.1942      
    377.1736      
    404.8444      
    791.2440      
    134.5604      
    162.1343      
     25.1457      
    212.8525      
    526.3490      
    334.9739      
    184.2568      
    461.8029      
      0.0000      
    508.2657      
    724.3305      
    384.7851      
    162.6980      
    458.0088      
    142.1594      
    406.0737      
    864.3455      
      0.0000      
      0.0000      
    213.1924      
    236.3152      
    379.9170      
    251.3832      
    359.2836      
    530.0053      
    169.3113      
    254.7681      
    456.4905      
    131.7945      
    235.0258      
    280.4308      
    737.6752      
    509.8970      
    497.3066      
    542.9041      
    516.8879      
    549.0510      
    174.9411      
    519.3961      
    852.2502      
    391.4231      
    410.1237      
    701.9770      
   1058.3447      
    959.9614      
    520.7452      
    441.0819      
    643.3296      
    859.7245      
   1112.9844      
   1421.7119      
    373.7540      
    669.8764      
    554.2059      
    824.1899      
    793.5549      
    780.8946      
    894.1315      
   1183.6554      
   1044.4644      
   1348.2765      
   1294.7145      
   1051.4277      
   1156.0934      
   1569.5143      
   1230.0717      
   2584.6689      
   1909.4983      
   2185.3342      
   2684.2664      
   3042.6621      
   3670.6746      
   3511.7461      
   4682.4023      
   4711.8999      
   5603.8911      
   6228.8291      
   6662.3613      
   7723.1489      
   8802.2178      
   9269.4248      
   9984.2197      
  10470.8350      
   9529.5811      
   8556.5186      
   6580.0171      
   5792.4888      
   4298.0776      
   3778.4697      
   3511.2974      
   3615.3828      
   2943.1724      
   3097.5603      
   3397.3069      
   3299.8416      
   3883.0386      
   3667.1396      
   4192.0933      
   4240.3228      
   4412.1880      
   4565.4346      
   5406.6387      
   4983.4048      
   5138.0449      
   5047.4326      
   4741.3262      
   5029.7769      
   4594.7798      
   5363.7988      
   4706.1978      
   4406.5322      
   4122.5059      
   3811.4915      
   4838.5186      
   4585.9238      
   4768.2627      
   4259.1377      
   3570.8142      
   3830.2886      
   3039.5295      
   2678.3274      
   2287.0183      
   2108.7161      
   1866.9435      
   2528.9065      
   2853.6292      
   2775.5664      
   3283.5034      
   3186.2332      
   3786.9282      
   4241.4526      
   4337.1650      
   4214.5259      
   4210.5474      
   2795.5942      
   1866.9991      
   1986.6058      
   2170.6541      
   1988.1263      
   1806.1392      
   1424.8577      
   1407.4781      
    803.7574      
   1427.1289      
   1373.4938      
   1492.1510      
   1424.8590      
    901.8837      
    490.3610      
    433.0711      
   1066.2091      
    832.9938      
    564.8666      
    632.7270      
   1127.8300      
    629.7467      
   1219.6290      
    882.4060      
    435.3412      
    601.4070      
    169.6882      
    419.7368      
    612.5885      
   1175.1650      
    596.1744      
    485.1874      
    352.1077      
      0.0000      
    438.3055      
    635.6699      
    802.2327      
    333.5269      
    401.1163      
    237.0903      
    769.2850      
   1017.1866      
   1017.9203      
   1384.4567      
   1339.9155      
    898.6589      
   1677.2015      
   1071.1328      
   1665.0095      
   1099.6351      
   1086.8374      
    642.9217      
    639.1672      
    899.9933      
    488.6503      
    668.2000      
    276.1821      
    902.8920      
    491.5463      
    832.4764      
    412.6874      
    587.5366      
    579.3141      
    673.9761      
    406.6496      
      0.0000      
    234.4714      
    533.7488      
    253.6820      
    620.1121      
      0.0000      
    483.0333      
    198.7656      
    457.6835      
    892.6303      
    534.9999      
    584.8544      
    104.6615      
    376.5435      
    631.7027      
   1103.8778      
    360.8488      
    835.4485      
    451.3958      
    225.0522      
    336.9583      
   1049.5471      
    677.6274      
    276.7758      
    683.5109      
     69.4968      
     21.4558      
    927.8095      
    431.6791      
    678.0623      
    401.8783      
    122.4779      
    171.9892      
    190.4448      
    124.5695      
    557.0512      
    709.8024      
    598.6571      
     43.1174      
      0.0000      
    873.9837      
   1059.0125      
    696.0554      
    741.5236      
      0.0000      
    229.8613      
    479.8551      
    543.0255      
    467.8484      
     63.9999      
    495.9861      
    127.4379      
    128.1233      
    164.3024      
    973.4677      
    570.8398      
    763.8925      
    260.3074      
    349.9433      
    332.8203      
    973.0690      
    187.5214      
    325.9651      
    746.2588      
    305.0823      
     17.3419      
    297.5356      
    218.2284      
    695.9147      
    250.6693      
    460.5333      
    412.1830      
    159.4561      
      0.0000      
    664.1645      
    365.8867      
    166.5755      
    585.7249      
    145.7306      
    497.7918      
    187.0013      
    758.3724      
   1050.8553      
    594.2018      
    447.6222      
     44.0501      
      0.0000      
      0.0000      
    152.3948      
    575.8542      
    589.9225      
    118.9084      
    689.5764      
    409.0435      
   1063.3125      
   1050.4760      
   1195.2816      
    916.9586      
    917.6165      
    297.3098      
   1238.5087      
    682.0867      
    852.9339      
   1953.0101      
   1435.4750      
    962.6267      
    627.2487      
   1605.1481      
    548.1707      
   1050.6563      
   1738.8684      
   1160.0155      
    608.8145      
    976.8188      
   1256.6702      
   1592.1934      
   1570.1644      
   1552.6675      
   1771.3514      
   1296.0225      
   1827.2751      
   1632.3816      
   2129.8750      
   2364.3528      
   1684.2772      
   1526.0892      
   2150.7576      
   1909.2457      
   1605.1115      
   1947.0184      
   2222.0186      
   2410.8386      
   2113.4097      
   2123.1938      
   2032.3912      
   2662.1030      
   2639.6650      
   2718.7771      
   3500.2622      
   2886.5535      
   2813.1287      
   2827.6379      
   3050.7554      
   2879.8230      
   3256.6643      
   3085.1687      
   3057.9319      
   3128.2520      
   3026.6887      
   3129.5107      
   3610.8230      
   4214.0005      
   4063.4480      
   4642.4316      
   4685.9380      
   5232.2510      
   4978.5845      
   4983.9980      
   5634.4404      
   6817.1133      
   5732.5327      
   7437.7856      
   7333.9141      
   8064.6626      
   9991.0244      
  11339.2773      
  13256.0068      
  16740.6777      
  20455.6055      
  27574.3613      
  38031.4805      
  55352.2383      
  83461.2188      
 111096.9219      
 119331.2734      
 101785.8438      
  77826.9141      
  57426.3867      
  42054.3594      
  31457.6738      
  24864.4766      
  21633.6055      
  17928.3047      
  17080.7891      
  15334.1123      
  14632.5039      
  14879.3906      
  15749.7188      
  17043.1816      
  16881.4375      
  18003.8828      
  19429.6758      
  21428.2012      
  23396.2305      
  24905.9082      
  28177.1797      
  31103.4551      
  33686.6406      
  38546.1211      
  43212.4961      
  49073.8828      
  54540.0078      
  60379.1484      
  63498.8438      
  66359.3047      
  66513.4297      
  65333.9102      
  64771.3906      
  63783.2344      
  63319.6055      
  63539.6719      
  63797.2930      
  60909.9023      
  56874.6406      
  53260.1602      
  50593.4375      
  49267.8516      
  51163.1289      
  55006.6328      
  59455.6602      
  62612.1211      
  63387.6250      
  62050.2930      
  56748.9727      
  48749.8984      
  43034.1602      
  37668.4219      
  32541.0234      
  29330.9453      
  26709.8379      
  25649.1406      
  23909.2168      
  23458.0234      
  24607.3359      
  25465.2695      
  27751.6270      
  30974.7207      
  34549.4063      
  38840.6602      
  43359.8398      
  48817.1250      
  52411.6797      
  55620.2422      
  57068.1758      
  56205.0078      
  53485.9258      
  51330.5898      
  48753.6875      
  47240.3633      
  44778.4297      
  44598.4023      
  44951.6484      
  45828.9180      
  47497.7578      
  48201.2227      
  47461.1367      
  45923.2500      
  44656.5508      
  40392.6211      
  37277.2109      
  34149.3906      
  30808.1094      
  28907.1523      
  27130.4863      
  26547.4473      
  25337.2422      
  26231.9199      
  27797.6270      
  29015.8789      
  30351.5703      
  29858.7969      
  28437.0918      
  26653.3926      
  24076.0684      
  20579.6621      
  18408.3945      
  16574.3750      
  14207.8574      
  13937.3613      
  12497.4434      
  12341.7754      
  10706.7314      
   9724.4170      
   9159.9600      
   8342.6563      
   8282.6855      
   8021.6113      
   7189.2559      
   6367.8599      
   6476.0845      
   6510.9385      
   6018.4639      
   6096.8618      
   5743.0337      
   5796.8647      
   5348.4556      
   4755.3628      
   4965.9224      
   4281.7983      
   4102.9155      
   4595.7866      
   3854.6179      
   4492.4243      
   4821.2139      
   3997.3267      
   4181.7188      
   3871.4631      
   4461.9766      
   4056.0364      
   3624.6438      
   4321.5239      
   3443.5295      
   3104.4451      
   2961.3179      
   3017.4392      
   3497.0598      
   3297.1582      
   3516.8225      
   3840.4661      
   3770.6355      
   4020.2087      
   4578.7886      
   3608.3491      
   4352.2764      
   4423.8608      
   5466.0107      
   6081.4658      
   6840.7764      
   7774.1714      
   9226.2012      
  10414.7988      
  11075.8857      
  12445.7715      
  12166.8105      
  12301.5693      
  10152.0977      
  10142.2480      
   8311.1904      
   8311.7266      
   7480.8530      
   7005.5713      
   6167.4375      
   4471.4639      
   4647.6738      
   3967.2593      
   4127.9023      
   3308.6726      
   2771.6860      
   3570.8911      
   2906.7019      
   2437.3740      
   2401.2012      
   2300.9099      
   2507.8406      
   2361.5244      
   2183.5566      
   2065.3699      
   1498.2673      
   2326.9795      
   1476.7253      
    991.1132      
   1835.7842      
   1927.2709      
   1361.4468      
   1181.8197      
   1321.9148      
   2038.7012      
   1557.7908      
   1703.2598      
   2145.2258      
   1668.0410      
   1266.4904      
   1424.8171      
    966.5370      
   1629.3479      
   1911.3219      
   1730.1128      
   2158.5295      
    848.2575      
   1577.6188      
   1773.0317      
   1696.4233      
   1805.8513      
   1380.8881      
   1462.6582      
   1233.2313      
    955.3520      
   1234.2622      
   2251.0605      
   1941.3075      
   2316.1584      
   1869.5591      
   1566.2258      
   2102.8684      
   1296.3927      
   1382.5469      
   2360.4573      
   2100.3516      
   1664.3680      
   2403.2349      
   2688.6541      
   2111.5142      
   3100.9365      
   2345.7043      
   3032.4436      
   2447.5715      
   2411.3865      
   3177.6992      
   3517.9700      
   2886.9648      
   3165.2976      
   2855.6443      
   3856.9204      
   2456.2024      
   2824.8428      
   2894.6143      
   2862.7834      
   2946.4629      
   3132.2144      
   3747.9304      
   3547.3547      
   3226.5447      
   3497.0249      
   3525.5198      
   4097.9990      
   3966.7617      
   3671.8589      
   4430.0591      
   4881.9902      
   4435.7861      
   4459.9683      
   4811.9917      
   5165.9980      
   5531.6587      
   5286.8711      
   5124.3833      
   5465.7192      
   5509.5474      
   6500.5103      
   7587.0415      
   7230.0225      
   7682.7183      
   8638.0391      
   9146.9941      
  10792.4561      
  10354.2051      
  11829.3184      
  13269.1338      
  14093.0146      
  14309.3721      
  16344.2588      
  16597.2969      
  16563.2832      
  17817.8848      
  18591.4023      
  19152.5410      
  21385.1895      
  21051.2891      
  21119.7520      
  22129.9258      
  21411.9805      
  24473.9648      
  26557.0938      
  29139.3086      
  33145.3398      
  37329.5430      
  39673.0820      
  39490.8164      
  37387.1055      
  35811.6445      
  32211.0547      
  31601.7793      
  31631.5117      
  32917.8008      
  35369.8789      
  37382.4570      
  41543.9609      
  45653.5664      
  50783.4648      
  54615.2266      
  63233.6719      
  70450.2422      
  74994.5781      
  82613.1719      
  88759.3125      
  93298.9844      
  98513.3750      
 102090.0078      
  94950.2188      
  88761.6875      
  80439.2656      
  78382.1250      
  78754.5391      
  81649.9297      
  91466.8828      
 105361.4609      
 124405.8203      
 151035.5625      
 181096.8281      
 205173.0000      
 221301.6094      
 223625.7656      
 227870.6875      
 224741.3906      
 217184.3438      
 191606.4219      
 164739.7031      
 136317.9844      
 113161.7266      
  95771.0234      
  86514.2422      
  77562.6875      
  71424.9531      
  66637.8828      
  64289.0625      
  62742.9297      
  61281.1289      
  62587.6797      
  64377.2891      
  68763.0469      
  73394.2422      
  78986.1094      
  83046.2266      
  85179.8828      
  83047.1484      
  77022.6719      
  71791.8359      
  62989.5156      
  54892.2969      
  47866.9453      
  42597.6836      
  36993.1523      
  31696.2891      
  28099.1445      
  26100.6250      
  23634.3496      
  21709.2402      
  20181.6211      
  18845.1934      
  18140.6367      
  17853.0898      
  17240.8262      
  16445.0117      
  14359.3115      
  14271.1045      
  14844.5264      
  13830.5938      
  14172.8779      
  15165.2373      
  14534.1758      
  15622.7832      
  17216.3340      
  18875.3965      
  20591.9316      
  22023.8066      
  20703.1992      
  19014.4414      
  17984.0605      
  16635.9961      
  15412.2002      
  13831.4180      
  12920.3965      
  13099.9082      
  12845.4834      
  13416.7588      
  13422.6689      
  12318.7109      
  12233.3623      
  12330.3389      
  12750.8271      
  10731.0244      
  10637.3779      
   9376.0947      
   8220.1279      
   7476.2500      
   7511.4644      
   5516.9033      
   5425.9780      
   5464.8774      
   5518.2324      
   4525.6060      
   3885.1621      
   3689.0046      
   3260.9487      
   3577.8196      
   3727.7288      
   3327.2878      
   3225.5881      
   3170.3821      
   2497.7844      
   3199.0801      
   3983.4004      
   2471.5967      
   2389.5903      
   3196.1902      
   2317.2739      
   2198.9612      
   1685.8854      
   2685.3967      
   3561.0703      
   2314.8835      
   1570.0734      
   3683.7539      
   3432.3706      
   1793.1178      
   2468.0986      
   1694.3331      
   2684.7102      
   2122.1018      
   1777.1514      