  11100 17  1   EDFLLF09 PLLF01 EDF  .000 # S1 090794 00.01   1        
  PROGRAM LAMBDA-9   VERSION 02.31                                     
  USER EDF DATE & TIME  1994 10 12 18.06 43.97    9.3470    295K S     
 AU1 TM 500HO  50     0 LILUF4           .725000 -  .850000 .00005     
 FILE NAME                                ON PC = EDFLLF09.DX          
 NO_POINTS  =  2501.    pts   DATA_INTV =  .000050 æm                  
 MIN_LAMBDA =   .725000 æm     MIN_DATA =    .02100                    
 MAX_LAMBDA =   .850000 æm     MAX_DATA =   1.35970                    
 SCANSPEED  = .03000000 æm/min SLITWIDTH=   .00040 æm                  
  RESP TIME =   .2      sec SENSITIVITY = 5          DATE=94/09/07     
 Ho(.5)Tm(5)LiLuF4,slit=.4nm,sc speed=30,resp=.2s,int=.05,pol=s (2     
 8)                                                                    
 Sample from Lightning Optical Corporation, purchase order L53365D     
 Height=.298 inches, Width=.233 inches, Length= .368 inches,           
 C-axis is along the .298 height direction, Sample was taken with      
 c-axis pointing up in the sample compartment chamber of the Perki     
 Elmer Lambda-9 spectrometer.                                          
  This spectra is part of Database LASERS
 Database LASERS was created by Pat Cross working 
 at NASA Langley Research Center, Internal Operations Group,
 Aerospace Electronics Systems Division, Remote Sensing 
 Technology Branch. phone:(757)864-1633   fax:(757)864-7894 
     e-mail p.l.cross@larc.nasa.gov 
     homepage http://aesd.larc.nasa.gov/laser/dbmain.htm
  EOH     (1X,F11.4)                                                   
  2501.         
     23.9509    
     29.3710    
     24.4444    
     18.1571    
     24.4451    
     25.9236    
     32.8217    
     27.8952    
     25.4322    
     27.8959    
     26.4182    
     27.8967    
     18.1288    
     18.1256    
     18.1225    
     18.1194    
     27.4060    
     28.8843    
     21.0018    
     18.1068    
     18.1037    
     19.0322    
     20.5106    
     33.8136    
     31.8432    
     34.7998    
     33.8148    
     25.4395    
     28.3960    
     30.8598    
     21.4991    
     30.3679    
     20.5145    
     22.4856    
     19.0372    
     30.8621    
     18.0534    
     18.0502    
     18.0471    
     18.0440    
     18.0408    
     18.0377    
     18.0345    
     21.5041    
     22.9825    
     18.0251    
     18.0220    
     18.0188    
     18.0157    
     18.0125    
     18.0094    
     20.5218    
     18.5514    
     20.5225    
     26.9278    
     22.0013    
     22.9870    
     22.9874    
     17.9843    
     17.9811    
     17.9780    
     24.9598    
     25.4529    
     29.3948    
     22.0048    
     17.9623    
     17.9591    
     22.0059    
     17.9529    
     17.9497    
     21.0217    
     23.4855    
     24.4712    
     27.4279    
     28.9062    
     27.4286    
     29.3998    
     29.4002    
     27.4298    
     17.9183    
     17.9152    
     17.9120    
     17.9089    
     17.9057    
     19.5489    
     26.9396    
     17.8963    
     17.8932    
     17.8900    
     17.8869    
     17.8837    
     17.8806    
     17.8775    
     24.4792    
     31.8700    
     22.0166    
     17.8649    
     17.8618    
     17.8586    
     23.4961    
     18.5697    
     17.8492    
     17.8460    
     18.0782    
     23.0053    
     24.9765    
     17.8335    
     17.8303    
     17.8272    
     17.8241    
     19.0662    
     20.0519    
     25.9645    
     36.3114    
     34.8338    
     18.0827    
     37.2980    
     29.4153    
     19.5618    
     17.7926    
     17.7895    
     17.7864    
     18.0854    
     17.7801    
     21.0422    
     19.5645    
     22.5211    
     25.4776    
     17.7644    
     25.4784    
     20.5518    
     19.0741    
     17.7518    
     17.7487    
     28.4364    
     23.0171    
     23.5101    
     17.7361    
     17.7330    
     17.7298    
     17.7267    
     17.7235    
     17.7204    
     17.7173    
     17.7141    
     17.7110    
     17.7078    
     17.7047    
     17.7015    
     17.6984    
     17.6953    
     17.6921    
     17.6890    
     17.6858    
     17.6827    
     17.6796    
     24.0104    
     18.0986    
     17.6701    
     17.6670    
     18.0997    
     19.0854    
     17.6576    
     18.5935    
     26.4768    
     25.9845    
     18.5946    
     20.5657    
     18.1027    
     19.5810    
     24.5083    
     28.9429    
     25.4946    
     25.4949    
     20.0756    
     17.6167    
     17.6136    
     17.6105    
     19.0918    
     17.6042    
     17.6010    
     23.0343    
     22.5421    
     18.6010    
     17.5885    
     17.5853    
     17.5822    
     17.5791    
     22.5444    
     17.6178    
     17.5696    
     21.5601    
     18.1117    
     17.6193    
     21.0685    
     18.1128    
     17.5508    
     19.5915    
     19.5919    
     24.5191    
     21.5634    
     19.1004    
     24.5202    
     38.3160    
     30.9261    
     17.5225    
     17.5194    
     17.5162    
     21.5664    
     17.5099    
     18.1184    
     17.5037    
     17.5005    
     19.1048    
     20.0906    
     26.0032    
     17.6279    
     19.5990    
     21.5702    
     24.0339    
     26.0051    
     17.4723    
     17.4691    
     17.4660    
     17.4628    
     17.4597    
     17.4566    
     17.4534    
     17.4503    
     17.4471    
     17.4440    
     17.4409    
     17.4377    
     17.4346    
     17.4314    
     17.4283    
     17.4251    
     17.4220    
     17.4189    
     17.4157    
     17.4126    
     17.4094    
     17.4063    
     19.1160    
     24.5359    
     17.3969    
     17.6391    
     21.0882    
     25.5229    
     23.0597    
     27.0016    
     27.9873    
     18.1340    
     24.5392    
     27.4958    
     17.3655    
     22.5696    
     25.0334    
     23.0630    
     18.1366    
     17.3498    
     30.9472    
     29.4695    
     21.5868    
     25.0360    
     32.9195    
     23.0659    
     17.3278    
     20.1106    
     22.5744    
     21.5894    
     31.4435    
     33.9074    
     30.4589    
     24.0543    
     19.6204    
     18.1428    
     21.5920    
     31.9388    
     17.2901    
     17.2870    
     17.2838    
     17.2807    
     24.0576    
     24.5506    
     17.2713    
     28.9856    
     25.5372    
     21.1034    
     18.1476    
     28.0017    
     34.4071    
     18.6414    
     17.2461    
     17.2430    
     29.9744    
     29.4821    
     18.1506    
     25.0485    
     17.2273    
     19.1370    
     17.2210    
     17.2179    
     21.1089    
     19.1385    
     17.2084    
     17.2053    
     17.2022    
     24.0668    
     27.0233    
     36.8775    
     40.8193    
     44.2686    
     38.3567    
     32.9375    
     40.3281    
     37.3724    
     33.9239    
     21.1144    
     20.6220    
     31.4615    
     37.3743    
     31.9549    
     26.0430    
     21.6092    
     28.0145    
     21.1173    
     30.9715    
     33.4352    
     20.6257    
     26.5383    
     38.8559    
     24.0756    
     20.1344    
     19.6421    
     28.0182    
     44.7701    
     35.9019    
     34.4243    
     25.5563    
     17.0985    
     25.5570    
     24.0792    
     23.5869    
     19.1531    
     29.9926    
     29.9930    
     21.1250    
     21.1253    
     22.1110    
     24.5748    
     32.4582    
     20.1414    
     20.1417    
     21.1275    
     35.9085    
     38.8650    
     41.3289    
     37.3877    
     38.8661    
     47.7349    
     32.4618    
     17.6816    
     24.0868    
     40.8387    
     53.6490    
     27.0441    
     25.5665    
     21.6253    
     17.0075    
     23.1040    
     17.1921    
     24.5828    
     26.0612    
     30.9886    
     24.5838    
     32.4673    
     22.6139    
     25.5705    
     20.1512    
     18.6735    
     19.1665    
     20.6450    
     34.4407    
     30.0068    
     27.5437    
     25.0806    
     28.0371    
     16.9478    
     19.1694    
     23.1112    
     24.0970    
     17.1997    
     27.5466    
     29.0249    
     33.4595    
     38.8795    
     38.8798    
     48.2413    
     42.3294    
     30.5052    
     52.1839    
     50.2135    
     40.8528    
     42.3312    
     36.4193    
     34.4490    
     33.9566    
     35.4350    
     38.8841    
     45.7823    
     30.5092    
     50.7098    
     47.2613    
     43.8130    
     43.8133    
     51.6966    
     48.7408    
     36.9167    
     28.5414    
     25.5856    
     43.8155    
     49.7280    
     40.8600    
     41.3531    
     47.2657    
     55.6418    
     47.7591    
     49.7302    
     56.6282    
     55.6432    
     50.7167    
     37.9071    
     36.9221    
     40.8639    
     40.8643    
     34.9524    
     31.0113    
     30.5189    
     31.0120    
     51.2126    
     49.2422    
     55.1548    
     52.6918    
     55.6482    
     53.1852    
     54.1709    
     55.1566    
     66.4888    
     66.4892    
     50.7235    
     44.8116    
     42.3485    
     57.1295    
     56.1445    
     64.0279    
     67.4771    
     64.0286    
     49.2483    
     53.6829    
     47.7709    
     46.7858    
     50.2351    
     48.7573    
     52.6993    
     57.1338    
     57.1342    
     66.9883    
     57.6275    
     51.2229    
     57.1356    
     62.5555    
     65.5120    
     72.4100    
     72.9031    
     67.9765    
     63.5427    
     50.7331    
     51.2261    
     67.4853    
     66.5003    
     74.3836    
     81.7743    
     56.6475    
     60.5894    
     67.4875    
     71.4293    
     60.5904    
     54.1859    
     55.6643    
     64.5331    
     74.3872    
     76.8511    
     78.3295    
     74.8810    
     73.4032    
     66.5060    
     65.0282    
     60.5943    
     64.5363    
     66.0147    
     58.1320    
     52.7128    
     69.4646    
     90.1579    
     90.6509    
     87.6952    
     83.7540    
     88.1886    
     81.2913    
     72.4231    
     53.2087    
     72.4238    
     84.2487    
     79.3223    
     72.9176    
     74.3960    
     83.2648    
     77.3529    
     70.9483    
     73.4121    
     83.2663    
     85.2373    
     80.3108    
     86.7162    
     76.3700    
     76.3703    
     76.3707    
     73.4149    
     67.9956    
     72.4302    
     75.8794    
     74.4017    
     86.2266    
     96.5735    
    109.8765    
     91.1546    
     86.7208    
     88.1992    
     89.1849    
     95.5902    
     95.5905    
     95.0982    
     95.5912    
     91.1574    
     92.1431    
    100.5192    
     97.0707    
    101.9980    
     96.0860    
     96.5791    
     93.1305    
    122.1996    
    109.3901    
     95.1024    
    102.9858    
    110.3765    
    110.3769    
    114.3187    
    119.2460    
    104.9583    
    116.2906    
    129.5935    
    122.6962    
    118.7551    
    128.1165    
    122.6973    
    118.2634    
    107.9173    
    105.9469    
    105.4545    
     89.1961    
    102.4991    
    117.7728    
    113.3390    
    102.5002    
    104.9639    
    103.9790    
    101.0231    
    104.9650    
    105.4580    
    109.3999    
    107.4295    
    106.9372    
    118.2694    
    118.7625    
    120.2408    
    128.6169    
    120.7342    
    122.2126    
    124.1838    
    130.0964    
    138.4724    
    124.1848    
    124.1852    
    131.5759    
    136.9957    
    128.6203    
    124.6792    
    125.1723    
    139.4606    
    138.4756    
    152.2713    
    141.4324    
    136.0132    
    136.5062    
    159.1703    
    166.0683    
    161.1418    
    159.1713    
    153.7522    
    155.2306    
    136.0160    
    131.0894    
    157.2023    
    166.5638    
    158.6811    
    159.1741    
    152.2768    
    137.9892    
    145.3799    
    150.3071    
    158.6832    
    159.6689    
    183.3185    
    194.1580    
    175.4361    
    173.9584    
    179.3782    
    168.5394    
    164.1056    
    159.1790    
    160.1648    
    156.7162    
    158.1946    
    171.0049    
    176.9175    
    174.4545    
    175.9329    
    183.8163    
    192.1923    
    177.4120    
    174.4563    
    185.2958    
    196.6280    
    187.2673    
    187.2676    
    195.1510    
    177.4145    
    186.2832    
    186.7762    
    191.7034    
    190.7185    
    204.5141    
    193.6753    
    204.0221    
    205.5005    
    209.4423    
    215.8477    
    228.1653    
    218.8045    
    217.8195    
    210.4295    
    207.9663    
    205.0106    
    210.9232    
    208.9528    
    203.5335    
    211.9095    
    218.8076    
    218.8080    
    211.4180    
    211.4183    
    214.8675    
    222.7509    
    217.3317    
    226.2003    
    228.1715    
    227.1864    
    219.7965    
    223.7383    
    224.2314    
    206.9875    
    218.8125    
    225.7104    
    227.1888    
    213.3940    
    213.8869    
    224.2338    
    230.1464    
    232.1174    
    233.1032    
    245.4208    
    249.8553    
    243.4507    
    240.0022    
    238.0318    
    240.9883    
    255.7693    
    254.2916    
    247.3942    
    263.1607    
    262.1757    
    258.7271    
    265.1324    
    249.8594    
    245.4256    
    252.8163    
    266.6120    
    250.3536    
    260.7003    
    269.5691    
    273.5109    
    272.5260    
    284.8435    
    276.4681    
    277.9465    
    284.3518    
    285.3376    
    280.4109    
    284.8455    
    274.4995    
    268.5875    
    274.0074    
    278.4420    
    273.0227    
    282.3842    
    276.4723    
    263.1700    
    276.4729    
    289.7758    
    283.8639    
    284.3569    
    287.3135    
    298.6457    
    294.7044    
    291.2560    
    307.5151    
    301.1104    
    292.7351    
    302.5893    
    296.1846    
    303.0826    
    300.1268    
    308.9955    
    313.4301    
    329.6892    
    329.1968    
    327.7191    
    324.2707    
    324.2710    
    330.1837    
    322.3009    
    332.1550    
    332.1553    
    330.1850    
    326.7364    
    341.5176    
    349.8936    
    338.0694    
    339.5478    
    331.1723    
    338.5630    
    345.9538    
    358.7640    
    366.6474    
    373.5454    
    367.6334    
    352.8531    
    362.7073    
    378.4737    
    372.5618    
    360.2448    
    363.6939    
    369.1139    
    374.5338    
    377.4903    
    385.8665    
    385.3740    
    389.8086    
    371.5793    
    383.4043    
    382.9119    
    386.8539    
    396.7079    
    395.2302    
    406.5623    
    409.5189    
    406.5630    
    403.6073    
    410.5053    
    403.6080    
    401.6375    
    406.5647    
    429.7216    
    425.7803    
    433.1709    
    430.7079    
    416.4203    
    421.3475    
    437.1140    
    426.2750    
    434.1584    
    439.0857    
    442.5349    
    456.3304    
    452.3894    
    441.5504    
    442.0435    
    454.3610    
    464.2153    
    474.5620    
    491.3139    
    487.8654    
    479.4900    
    474.5634    
    468.1588    
    487.8667    
    476.5351    
    469.6379    
    468.1602    
    475.5507    
    474.0731    
    471.6099    
    472.1030    
    477.0302    
    481.4648    
    473.5821    
    479.0019    
    495.7538    
    502.6517    
    507.5789    
    512.5062    
    504.1308    
    502.1604    
    512.5071    
    498.7122    
    500.1906    
    515.4643    
    522.8551    
    525.8116    
    532.2168    
    541.0856    
    534.1883    
    541.0862    
    560.3014    
    537.6382    
    530.2482    
    544.0437    
    552.4197    
    544.5372    
    561.2889    
    554.3916    
    572.1287    
    595.2854    
    580.0124    
    589.8665    
    592.3303    
    596.7649    
    593.3163    
    583.9556    
    595.2877    
    571.1463    
    584.4493    
    598.2450    
    610.5625    
    609.5775    
    615.9828    
    604.6513    
    596.7686    
    613.5203    
    617.4623    
    616.9698    
    630.7655    
    639.1415    
    633.2296    
    629.7811    
    632.7375    
    626.3330    
    628.7966    
    629.7823    
    641.6074    
    649.9834    
    645.5495    
    633.2327    
    644.5647    
    661.3166    
    662.7949    
    676.0979    
    670.1860    
    670.1863    
    673.6354    
    679.5481    
    693.8365    
    691.8661    
    690.8810    
    689.8959    
    682.9987    
    689.4039    
    706.6484    
    724.3854    
    724.3858    
    711.0836    
    728.3280    
    732.2698    
    740.6460    
    748.0366    
    741.1393    
    731.7786    
    756.4135    
    757.8917    
    757.3994    
    762.3267    
    767.2538    
    778.5860    
    790.4109    
    791.3967    
    800.2653    
    812.5829    
    810.6124    
    794.3540    
    799.7740    
    793.8621    
    792.3843    
    812.5849    
    814.0633    
    816.5272    
    816.5275    
    845.5964    
    845.5968    
    848.0605    
    840.1779    
    836.2367    
    849.0470    
    871.7110    
    874.6675    
    877.6239    
    861.3655    
    864.8148    
    871.7126    
    870.7277    
    875.6548    
    877.1332    
    889.9436    
    889.4512    
    902.7542    
    894.8713    
    902.2620    
    922.4626    
    933.3021    
    921.9705    
    906.6975    
    908.1760    
    929.8547    
    941.1869    
    925.9139    
    942.6656    
    936.7537    
    938.2321    
    939.7103    
    939.7106    
    944.1454    
    952.0287    
    959.9120    
    968.2881    
    974.2006    
    976.6646    
    979.6210    
    983.0701    
    990.4609    
    988.9830    
    990.9540    
    998.3449    
   1000.8085    
    993.4185    
   1008.1996    
   1001.3022    
   1005.2440    
   1021.5033    
   1025.9377    
   1013.6209    
   1034.3141    
   1045.6464    
   1040.7197    
   1025.4468    
   1023.9690    
   1057.4723    
   1066.8335    
   1057.9655    
   1045.1559    
   1049.5906    
   1064.8643    
   1054.0254    
   1082.6017    
   1082.1093    
   1078.1681    
   1091.9637    
   1085.5591    
   1100.8328    
   1099.3551    
   1110.6871    
   1121.0342    
   1107.2390    
   1125.9614    
   1115.6154    
   1121.5281    
   1129.9041    
   1152.5680    
   1161.9297    
   1167.3495    
   1169.3206    
   1172.2772    
   1170.3066    
   1178.1901    
   1193.9563    
   1195.9274    
   1212.1866    
   1222.0406    
   1227.9534    
   1237.3146    
   1234.3589    
   1239.7787    
   1238.3010    
   1241.2574    
   1245.1992    
   1253.0829    
   1258.9954    
   1262.4446    
   1288.0646    
   1292.4993    
   1281.1676    
   1298.4122    
   1294.9636    
   1299.3981    
   1291.5154    
   1321.0773    
   1333.3948    
   1338.8147    
   1339.8004    
   1334.3812    
   1344.7279    
   1363.9431    
   1372.8119    
   1403.3589    
   1393.9980    
   1398.4327    
   1424.5457    
   1430.4581    
   1442.7758    
   1458.0494    
   1451.6448    
   1469.8748    
   1489.5825    
   1491.5537    
   1505.3491    
   1526.0426    
   1542.7943    
   1540.3313    
   1562.5027    
   1563.9810    
   1570.8789    
   1592.0649    
   1614.7290    
   1630.0027    
   1667.4473    
   1686.6627    
   1683.7068    
   1695.5317    
   1714.2543    
   1729.0353    
   1750.2213    
   1752.6849    
   1790.1298    
   1816.7354    
   1831.5162    
   1849.7461    
   1864.0345    
   1875.3667    
   1894.0891    
   1927.5923    
   1942.3735    
   1978.8326    
   2009.8726    
   2015.7852    
   2031.5515    
   2062.5913    
   2069.9819    
   2099.0510    
   2130.0908    
   2161.1304    
   2171.4773    
   2196.6047    
   2247.3523    
   2261.1477    
   2291.2021    
   2320.2712    
   2365.1062    
   2396.6389    
   2415.3613    
   2453.2988    
   2481.8750    
   2546.9104    
   2570.0674    
   2572.0383    
   2617.3660    
   2633.6252    
   2675.0112    
   2734.6272    
   2780.4478    
   2826.2681    
   2845.4832    
   2878.4937    
   2916.4312    
   2985.4080    
   3022.8528    
   3060.2976    
   3099.7129    
   3124.3477    
   3187.4124    
   3241.6086    
   3291.3706    
   3331.7715    
   3367.7380    
   3395.8218    
   3427.3542    
   3457.9014    
   3494.3606    
   3513.5757    
   3557.9180    
   3597.8267    
   3629.8518    
   3669.2673    
   3700.3069    
   3704.2488    
   3732.3325    
   3718.0447    
   3732.8259    
   3732.8262    
   3759.4316    
   3772.2417    
   3773.2275    
   3742.1885    
   3768.7937    
   3800.3262    
   3786.0388    
   3766.8240    
   3768.3025    
   3773.2300    
   3778.1570    
   3792.4453    
   3760.9136    
   3776.1870    
   3773.2314    
   3754.5093    
   3753.0315    
   3751.5540    
   3780.6230    
   3801.8091    
   3777.1748    
   3787.0288    
   3804.7661    
   3792.4492    
   3832.8501    
   3854.0361    
   3830.8796    
   3856.9927    
   3883.1057    
   3901.3352    
   3920.0581    
   3930.4048    
   3949.6199    
   3994.4553    
   4059.4902    
   4055.0569    
   4096.9355    
   4120.0923    
   4120.0923    
   4179.2153    
   4260.0171    
   4286.1299    
   4345.2529    
   4403.8833    
   4459.0649    
   4509.8125    
   4509.8125    
   4569.4282    
   4582.2388    
   4680.7769    
   4721.6704    
   4762.0713    
   4826.6143    
   4866.0298    
   4916.2837    
   4966.0459    
   5058.6719    
   5079.3652    
   5155.7324    
   5163.1235    
   5217.8120    
   5248.8516    
   5300.0918    
   5354.7813    
   5366.6055    
   5406.0210    
   5419.8164    
   5488.7939    
   5499.6333    
   5495.1992    
   5502.5898    
   5508.0093    
   5525.2539    
   5518.8496    
   5505.5474    
   5510.4746    
   5502.5918    
   5463.6699    
   5425.2402    
   5399.6206    
   5406.5186    
   5337.0498    
   5308.9663    
   5299.1128    
   5241.9609    
   5192.1997    
   5139.9751    
   5121.7461    
   5069.0288    
   5050.7993    
   4983.3018    
   4939.4521    
   4880.8223    
   4855.2031    
   4815.7881    
   4761.5923    
   4719.7144    
   4688.1826    
   4668.4751    
   4661.5776    
   4630.0459    
   4626.5977    
   4601.4707    
   4580.2856    
   4555.6514    
   4551.2173    
   4545.3057    
   4570.4326    
   4575.8525    
   4540.3794    
   4539.3940    
   4561.0732    
   4564.5225    
   4584.7227    
   4623.1528    
   4651.7290    
   4676.8564    
   4696.0718    
   4737.4580    
   4754.2095    
   4800.5229    
   4846.3433    
   4874.4268    
   4894.1353    
   4960.6484    
   5000.0640    
   5080.3726    
   5116.8320    
   5180.3892    
   5225.2241    
   5283.8550    
   5312.9233    
   5381.4077    
   5475.5117    
   5530.2007    
   5584.8901    
   5603.1191    
   5631.6958    
   5696.7310    
   5771.6201    
   5829.2656    
   5898.7349    
   5975.1021    
   6010.5757    
   6038.1665    
   6086.4507    
   6142.6177    
   6164.7891    
   6242.1416    
   6300.7720    
   6312.1040    
   6374.6758    
   6394.8770    
   6434.7847    
   6450.0586    
   6459.4199    
   6467.7959    
   6467.7964    
   6512.1392    
   6536.7739    
   6526.9199    
   6539.7305    
   6514.1108    
   6524.9502    
   6552.0483    
   6504.7510    
   6498.3457    
   6504.2588    
   6508.2007    
   6470.2632    
   6425.9219    
   6374.1899    
   6428.8784    
   6375.1753    
   6334.7754    
   6281.5654    
   6238.2090    
   6164.3057    
   6170.2183    
   6138.1938    
   6094.8374    
   6103.7061    
   6083.5063    
   6058.3794    
   5996.3008    
   5928.3101    
   5902.6904    
   5848.0020    
   5838.1484    
   5814.5000    
   5766.2163    
   5755.3774    
   5707.5869    
   5697.7339    
   5692.8071    
   5646.4946    
   5639.5972    
   5649.9438    
   5635.1636    
   5578.0117    
   5609.0518    
   5596.2417    
   5569.6372    
   5573.5791    
   5569.1450    
   5579.4917    
   5612.5024    
   5610.5317    
   5580.9712    
   5609.0547    
   5624.3281    
   5648.4707    
   5704.1445    
   5752.9209    
   5787.4097    
   5816.9712    
   5856.3872    
   5864.2705    
   5891.3687    
   5932.2617    
   5966.7510    
   5988.4297    
   6043.1182    
   6104.7051    
   6172.2036    
   6219.9946    
   6291.4351    
   6320.0112    
   6363.8608    
   6382.5835    
   6345.6323    
   6375.1934    
   6387.5112    
   6420.5215    
   6466.8345    
   6468.8062    
   6478.1675    
   6490.4854    
   6482.6025    
   6490.4858    
   6505.2671    
   6442.6953    
   6440.2324    
   6436.7837    
   6467.3306    
   6459.4478    
   6470.2871    
   6445.1606    
   6407.7168    
   6440.2344    
   6399.8340    
   6384.5615    
   6381.1128    
   6436.7871    
   6412.6455    
   6402.7915    
   6395.4019    
   6371.7529    
   6323.9624    
   6303.7622    
   6328.8896    
   6261.8843    
   6244.1479    
   6222.9624    
   6151.0303    
   6151.0308    
   6092.4004    
   6013.0781    
   6001.2539    
   5911.5845    
   5856.8965    
   5809.1055    
   5746.5347    
   5659.3291    
   5543.5469    
   5498.7124    
   5423.8242    
   5325.7793    
   5254.3394    
   5140.5283    
   5040.0200    
   5017.8491    
   4918.8193    
   4839.4961    
   4766.5786    
   4664.5918    
   4602.5132    
   4547.8252    
   4487.7173    
   4379.8188    
   4291.6274    
   4238.9102    
   4196.0464    
   4136.9238    
   4065.4841    
   4002.4202    
   3958.0784    
   3934.9221    
   3882.2048    
   3850.1802    
   3787.1165    
   3756.0774    
   3690.5500    
   3657.5398    
   3628.9641    
   3595.4617    
   3533.8757    
   3480.1729    
   3458.9873    
   3406.7627    
   3367.8406    
   3348.1333    
   3315.1235    
   3294.4307    
   3269.3040    
   3234.8159    
   3198.8496    
   3179.1428    
   3133.8154    
   3081.0979    
   3008.1802    
   3012.6147    
   2977.6338    
   2952.5073    
   2919.4973    
   2869.2434    
   2812.0916    
   2812.0918    
   2795.8335    
   2743.6086    
   2714.0474    
   2681.5303    
   2636.2029    
   2596.7886    
   2574.6174    
   2547.5198    
   2527.3201    
   2478.0515    
   2460.3149    
   2455.3879    
   2461.3008    
   2435.1885    
   2398.7300    
   2375.0811    
   2345.0273    
   2327.7837    
   2305.6125    
   2284.4272    
   2268.1689    
   2254.3738    
   2213.4810    
   2192.7883    
   2179.4861    
   2171.1104    
   2163.7205    
   2141.5498    
   2122.8279    
   2102.1353    
   2084.8914    
   2068.1401    
   2061.2427    
   2064.1995    
   2045.4773    
   2030.2043    
   2026.7557    
   2009.5120    
   1994.2389    
   2009.5126    
   1997.1956    
   1979.9517    
   1980.9375    
   1960.7375    
   1939.0596    
   1937.0891    
   1929.6990    
   1925.7579    
   1925.2654    
   1924.2803    
   1926.7440    
   1906.0514    
   1912.9495    
   1889.7933    
   1879.4471    
   1879.4474    
   1900.1406    
   1896.6921    
   1886.3459    
   1886.8390    
   1900.1418    
   1878.9564    
   1868.6104    
   1870.5814    
   1871.0743    
   1875.0162    
   1874.0313    
   1889.3048    
   1873.5391    
   1867.1345    
   1845.4563    
   1819.8367    
   1821.8079    
   1848.4135    
   1851.3700    
   1865.6580    
   1839.5459    
   1810.9702    
   1814.4193    
   1814.9124    
   1832.1566    
   1818.8544    
   1809.4937    
   1806.5377    
   1790.2793    
   1777.4696    
   1787.3239    
   1788.8020    
   1755.7924    
   1747.4169    
   1740.5195    
   1743.4760    
   1748.8958    
   1727.2178    
   1723.7693    
   1731.6526    
   1742.9847    
   1726.2336    
   1710.4679    
   1692.2386    
   1679.9216    
   1671.5464    
   1666.6196    
   1681.4006    
   1654.3029    
   1627.2054    
   1630.1619    
   1640.0159    
   1640.5090    
   1638.5383    
   1605.0358    
   1647.9001    
   1620.3099    
   1608.9783    
   1627.2081    
   1614.8912    
   1608.4866    
   1598.6329    
   1581.8818    
   1590.2578    
   1583.3606    
   1586.3169    
   1597.1565    
   1586.3175    
   1573.5081    
   1549.8591    
   1554.7864    
   1577.9431    
   1570.0603    
   1567.5970    
   1567.1047    
   1561.1929    
   1571.0468    
   1568.0911    
   1567.5986    
   1539.0231    
   1540.9939    
   1564.1508    
   1570.0634    
   1560.2098    
   1575.4834    
   1567.1080    
   1552.3276    
   1557.7474    
   1565.1382    
   1579.4265    
   1557.7484    
   1546.9095    
   1581.8909    
   1575.9789    
   1567.1107    
   1555.2865    
   1534.5939    
   1562.1848    
   1568.0973    
   1550.3608    
   1573.0248    
   1565.1421    
   1559.2302    
   1563.6647    
   1566.1284    
   1569.0850    
   1561.6948    
   1556.2755    
   1540.0172    
   1532.1343    
   1546.4226    
   1551.8425    
   1552.8282    
   1558.2480    
   1570.0729    
   1550.8582    
   1556.7709    
   1550.3662    
   1529.1808    
   1529.6737    
   1527.2107    
   1518.8352    
   1514.4012    
   1518.3433    
   1500.6066    
   1485.3335    
   1494.6949    
   1481.8854    
   1476.4659    
   1455.2806    
   1468.0909    
   1465.1350    
   1437.5447    
   1418.3302    
   1412.9109    
   1370.0471    
   1366.5988    
   1356.7452    
   1354.2819    
   1358.7164    
   1341.9652    
   1348.3706    
   1308.9558    
   1292.6973    
   1286.2925    
   1275.4539    
   1252.2976    
   1221.2585    
   1227.1709    
   1224.7079    
   1214.3618    
   1183.8152    
   1167.0641    
   1161.1521    
   1152.2841    
   1136.0255    
   1131.5916    
   1127.6505    
   1110.8990    
   1105.4801    
   1109.9146    
   1102.0317    
   1095.1344    
   1080.3541    
   1078.8761    
   1075.9203    
   1058.6766    
   1071.9795    
   1057.1990    
   1043.8967    
   1036.9994    
   1031.0873    
   1020.7413    
   1008.9168    
   1002.0197    
    989.7025    
   1008.9177    
   1008.9180    
    996.1084    
    986.7478    
    973.9380    
    965.5625    
    973.4460    
    972.9536    
    951.2756    
    963.1005    
    969.0130    
    963.1010    
    947.3353    
    954.2330    
    945.8576    
    937.9749    
    939.4534    
    957.6832    
    940.9321    
    924.1808    
    905.9516    
    921.2253    
    911.3717    
    904.4744    
    902.9967    
    880.8259    
    867.0309    
    858.1628    
    838.4554    
    864.0756    
    883.7834    
    858.1640    
    878.3645    
    859.1500    
    860.6282    
    850.7748    
    877.8729    
    857.1802    
    851.2684    
    844.8637    
    847.3275    
    854.2253    
    839.4449    
    858.6602    
    867.5287    
    869.9927    
    838.4607    
    831.0708    
    838.4613    
    837.9691    
    835.5057    
    828.6085    
    839.9406    
    848.8093    
    857.6779    
    865.5614    
    886.2546    
    841.9128    
    833.0446    
    848.8110    
    843.8846    
    853.2459    
    852.7535    
    836.4950    
    854.7247    
    871.4765    
    896.1114    
    893.1555    
    891.6778    
    862.6093    
    862.1169    
    876.4052    
    877.3909    
    891.1865    
    901.5333    
    888.2309    
    907.9389    
    893.1584    
    895.1294    
    895.6225    
    892.6666    
    901.5353    
    907.4479    
    916.3165    
    908.9266    
    911.3902    
    901.5367    
    890.2053    
    872.4686    
    884.7863    
    868.5278    
    886.7576    
    889.2213    
    915.8269    
    909.9147    
    897.5978    
    902.0323    
    903.5107    
    931.1016    
    917.7994    
    913.3654    
    885.2824    
    876.4143    
    877.8926    
    866.0683    
    855.2295    
    858.1860    
    862.6204    
    846.3620    
    831.5815    
    833.0598    
    816.3088    
    821.7286    
    820.2510    
    820.7440    
    814.3392    
    781.3292    
    781.8223    
    800.0521    
    804.4865    
    792.1695    
    764.0865    
    767.5357    
    784.2875    
    770.9851    
    763.1024    
    741.4244    
    721.7170    
    743.8883    
    727.6298    
    701.0250    
    710.8790    
    682.7961    
    692.1575    
    666.0452    
    676.8846    
    671.4653    
    669.0021    
    676.8854    
    641.9048    
    631.5586    
    632.0515    
    651.2668    
    644.3694    
    646.8331    
    635.9941    
    615.3015    
    595.1017    
    572.4382    
    568.9896    
    549.2822    
    575.8878    
    562.0928    
    542.8781    
    549.2834    
    549.7764    
    533.0253    
    536.4743    
    531.5479    
    515.7819    
    504.9431    
    501.9872    
    516.7683    
    516.7686    
    510.8565    
    487.2079    
    477.3542    
    475.8764    
    478.3402    
    473.9063    
    465.5308    
    452.2285    
    459.1265    
    457.6487    
    470.4590    
    461.5908    
    413.3075    
    412.8151    
    420.2058    
    437.4502    
    434.4943    
    430.5530    
    429.0753    
    427.1049    
    427.1052    
    403.9490    
    435.9742    
    437.9451    
    424.6428    
    416.7601    
    429.0776    
    425.6290    
    386.7068    
    394.5901    
    400.9954    
    397.0542    
    382.2738    
    381.7814    
    366.5083    
    370.4501    
    367.4943    
    353.6992    
    354.6850    
    361.0902    
    359.6124    
    349.7589    
    345.3250    
    337.9349    
    321.6764    
    319.2133    
    333.5015    
    347.2971    
    346.8047    
    331.5316    
    297.0438    
    300.4928    
    300.0005    
    304.9275    
    309.3621    
    301.9721    
    287.6843    
    287.1918    
    287.1921    
    293.1048    
    293.5978    
    300.9883    
    292.1202    
    290.1497    
    257.6324    
    258.1255    
    276.3554    
    277.8337    
    287.1950    
    260.5900    
    261.5758    
    266.0103    
    256.6495    
    253.2010    
    253.2013    
    223.6401    
    208.3670    
    231.5237    
    237.4363    
    242.3635    
    235.9587    
    226.5979    
    220.6861    
    233.4962    
    227.0915    
    233.0040    
    247.2924    
    233.9900    
    228.0780    
    224.6295    
    217.2394    
    198.0248    
    202.9520    
    204.4304    
    201.4745    
    191.6210    
    169.4503    
    149.7429    
    167.4800    
    168.4658    
    159.1049    
    157.6270    
    183.2473    
    188.1744    
    183.2478    
    172.4089    
    172.4092    
    147.2823    
    162.5560    
    154.1806    
    151.2247    
    144.8200    
    134.9665    
    133.9815    
    145.3137    
    143.3431    
    146.7922    
    119.2019    
    130.0413    
    137.9246    
    145.8080    
    151.2278    
    124.6229    
    104.4229    
    117.2331    
    123.6384    
    140.8829    
    132.0147    
    125.1172    
    115.2637    
    133.0008    
    133.9866    
    129.0599    
    119.6992    
     98.5138    
     93.0945    
    106.8900    
    117.7295    
    115.7591    
    127.5839    
    130.0475    
    110.8330    
    108.3698    
     99.5018    
     95.0678    
     96.5461    
    113.2978    
    116.2543    
    105.4153    
    112.8060    
    102.9525    
    100.4893    
     97.0408    
     97.0411    
    104.4317    
    109.3589    
     94.5785    
     96.0568    
     80.2910    
     77.3353    
     82.2624    
     93.5944    
     92.6094    
     86.2047    
     67.4828    
     56.6439    
     66.9907    
     98.5231    
     92.6111    
     84.7283    
     89.1629    
     77.3387    
     85.7145    
     65.5146    
     50.7342    
     50.7345    
     55.1690    
     52.7058    
     62.5599    
     54.6771    
     58.1262    
     61.5753    
     62.0683    
     74.3858    
    108.8743    
     84.7328    
     62.5622    
     55.1721    
     63.0553    
     55.6653    
     46.3045    
     45.3194    
     59.1150    
     66.0130    
     51.7252    
     72.4185    
     75.3749    
     55.6676    
     45.3214    
     40.8875    
     34.4828    
     51.7272    
     75.3766    
     46.3082    
     61.5818    
     65.5236    
     68.4800    
     59.6120    
     71.9295    
     49.7587    
     51.2370    
     74.3937    
     78.3356    
     67.4966    
     58.1358    
     47.2969    
     16.7504    
     43.3560    
     61.0930    
     62.5715    
     38.9226    
     52.2254    
     50.2550    
     62.5726    
     47.2994    
     39.4166    
     43.3585    
     42.8661    
     69.4716    
     73.4134    
     67.5014    
     52.7210    
     48.2871    
     43.8531    
     18.7263    
     24.6388    
     59.6201    
     55.6788    
     53.7084    
     63.0697    
     55.6796    
     27.5966    
     11.5663    
     36.4656    
     41.3928    
     65.0422    
     53.2179    
     24.6421    
     21.1937    
     30.0624    
     34.4968    
     36.4678    
     27.5997    
     34.4977    
     34.4979    
     49.7716    
     37.9474    
     35.9768    
     46.8163    
     31.0505    
     16.7628    
     27.6022    
     43.8612    
     48.2958    
     57.6572    
     48.2963    
     44.8478    
     67.5117    
     44.8483    
     14.7945    
     26.1267    
     34.9954    
     48.2983    
     44.8497    
     41.8939    
     54.7041    
     62.0946    
     16.7675    
     28.0997    
     35.4903    
     14.3049    
     28.1006    
     39.4326    
     30.5645    
     11.4348    
     26.6235    
     24.6530    
     15.7849    
     39.4342    
     38.4493    
     14.8003    
     28.5960    
     35.0013    
     15.7866    
     35.4945    
     39.4362    
     24.1631    
     18.2512    
     37.9591    
     26.1348    
     32.0472    
     56.6820    
     43.8724    
     53.2338    
     35.4973    
     39.9317    
     20.7171    
     25.6443    
     24.1665    
     16.2837    
     11.3533    
     17.2697    
     22.1969    
     17.7629    
     11.3408    
     11.3377    
     11.3345    
     11.3314    
     11.3283    
     16.7792    
     41.4139    
     44.8631    
     32.5461    
     32.0536    
     41.9078    
     35.0104    
     24.6641    
     25.6498    
     25.1573    
     33.0407    
     29.0995    
     29.5924    
     47.8222    
     65.0667    
     46.8374    
     14.3202    
     35.9988    
     18.7550    
     21.7114    
     18.2628    
     17.7704    
     25.6537    
     35.0151    
     21.2201    
     11.2468    
     17.2792    
     21.2209    
     18.2651    
     13.3383    
     11.2312    
     11.2281    
     24.6710    
     20.2371    
     29.1059    
     13.8328    
     25.6576    
     17.2822    
     22.2093    
     20.2388    
     11.1999    
     11.1967    
     11.1936    
     11.1905    
     11.1873    
     21.2259    
     29.1092    
     26.6459    
     32.0658    
     11.1717    
     11.1686    
     11.1654    
     11.1623    
     20.7354    
     30.5895    
     11.1529    
     16.7947    
     27.6341    
     18.7660    
     43.4007    
     32.5618    
     11.1341    
     11.1310    
     11.1278    
     11.1247    
     11.1216    
     11.1185    
     11.1153    
     11.1122    
     24.6812    
     33.0572    
     31.0868    
     13.3502    
     11.0965    
     11.0934    
     21.2341    
     15.8148    
     17.2932    
     12.3666    
     14.3376    
     11.0746    
     11.0715    
     21.7287    
     29.6119    
     43.9003    
     18.7734    
     22.2225    
     25.6716    
     16.8034    
     21.7307    
     11.0433    
     11.0402    
     24.6875    
     38.4832    
     33.0638    
     26.6591    
     18.7765    
     11.0214    
     11.0182    
     11.0151    
     11.0120    
     11.0089    
     11.0057    
     11.0026    
     10.9995    
     10.9963    
     10.9932    
     10.9901    
     15.8236    
     10.9838    
     10.9807    
     10.9775    
     10.9744    
     14.8395    
     10.9681    
     10.9650    
     10.9619    
     10.9588    
     21.7386    
     10.9525    
     10.9494    
     10.9462    
     19.7689    
     49.8233    
     34.5501    
     21.7405    
     10.9306    
     10.9274    
     10.9243    
     10.9212    
     10.9180    
     17.8006    
     25.1911    
     10.9087    
     19.2795    
     15.3382    
     19.7727    
     24.2072    
     22.7294    
     26.1786    
     10.8867    
     10.8836    
     10.8805    
     33.0772    
     29.6286    
     37.5120    
     37.0196    
     33.0783    
     33.0785    
     10.8586    
     10.8554    
     19.7768    
     19.2844    
     10.8460    
     15.3434    
     24.2120    
     27.6611    
     15.3442    
     17.3153    
     15.8375    
     37.0234    
     11.4038    
     17.3164    
     34.0680    
     31.6049    
     21.2587    
     10.8053    
     10.9127    
     10.7991    
     10.7959    
     11.8989    
     10.7897    
     22.7386    
     26.1878    
     17.8123    
     21.2614    
     24.2177    
     14.3643    
     10.7678    
     10.7646    
     10.7615    
     28.1607    
     34.5659    
     47.3760    
     21.7565    
     10.7458    
     15.3521    
     31.1184    
     10.7364    
     10.7333    
     10.7302    
     27.1780    
     10.9195    
     10.7208    
     10.7177    
     10.7145    
     10.7114    
     10.7083    
     29.6433    
     27.6728    
     16.8339    
     15.8488    
     13.3856    
     11.9078    
     10.6864    
     31.1233    
     32.1089    
     13.3869    
     10.6738    
     10.6707    
     10.6676    
     10.6644    
     10.6613    
     46.3989    
     33.5892    
     10.6519    
     10.6488    
     10.6457    
     10.6425    
     10.6394    
     12.4052    
     10.6331    
     10.6300    
     11.9132    
     27.6795    
     47.8801    
     15.8556    
     10.6143    
     24.7245    
     10.6081    
     10.6050    
     10.6018    
     15.8572    
     33.1015    
     33.1018    
     10.5893    
     10.5862    
     10.5830    
     10.5799    
     10.5768    
     10.5736    
     10.5705    
     10.5674    
     10.5643    
     10.5611    
     10.5580    
     10.5549    
     33.1053    
     39.5105    
     10.5455    
     10.5423    
     10.5392    
     16.8479    
     10.5329    
     10.5298    
     10.5267    
     17.8344    
     27.6884    
     21.2838    
     36.5574    
     33.1088    
     35.0799    
     33.6021    
     27.1973    
     21.7781    
     15.8661    
     16.3590    
     10.4891    
     27.1987    
     20.7940    
     28.1847    
     27.6922    
     25.7217    
     10.4703    
     10.4672    
     44.4448    
     15.8690    
     16.8546    
     17.8403    
     21.2894    
     32.1288    
     33.1144    
     17.3487    
     19.3197    
     59.7206    
     61.1988    
     59.7211    
     30.1600    
     24.2479    
     10.4202    
     10.4171    
     24.2487    
     43.9566    
     24.7419    
     16.8592    
     10.9471    
     13.9036    
     10.3952    
     10.3921    
     16.3678    
     22.2804    
     10.3827    
     17.8467    
     15.3835    
     10.3733    
     10.3702    
     19.3259    
     10.3639    
     10.3608    
     31.6439    
     44.9468    
     22.7760    
     28.1959    
     10.3451    
     10.3420    
     10.3389    
     24.7480    
     54.3098    
     50.8612    
     36.5734    
