  11100 13  1 ##LUAG8.SP PUC001 BMW  .000 # SI 060593 00.00 1          
  PROGRAM PE-FILECONVERT MAC VERSION 1.0                               
  USER BMW DATE & TIME  1993 03 12 00.16 07.00    9.9300    295K U     
 AU1 TM  50     0     0 LUAG             .730000 -  .830000 .00010     
 FILE NAME ON IBM-PC  = LUAG8.SP          ON MAC= P12033.03            
 NO_POINTS  =  1001.    pts   DATA_INTV =  .00010 _m                   
 MIN_LAMBDA =   .730000 _m     MIN_DATA =    .53210                    
 MAX_LAMBDA =   .830000 _m    MAX_DATA =    .85570                     
 SCANSPEED  = 15.000000 nm/min SLITWIDTH=   .20000 nmITA =   0.        
       RESP =    .500  sec        ISMS =   0.       DATE=93/05/06      
       INST = 509.                    ? =   0.                         
 ITHACA CORP SAMPLE                                                    
 0:16:07  12-03-1993                                                   
  This spectra is part of Database LASERS
 Database LASERS was created by Pat Cross working 
 at NASA Langley Research Center, Internal Operations Group,
 Aerospace Electronics Systems Division, Remote Sensing 
 Technology Branch. phone:(757)864-1633   fax:(757)864-7894 
     e-mail p.l.cross@larc.nasa.gov 
     homepage http://aesd.larc.nasa.gov/laser/dbmain.htm
  EOH.(1X,F11.4)                                                       
  1001.         
    107.4013    
    102.6479    
     93.1274    
      2.7169    
    140.9259    
     83.6512    
     21.7840    
      0.0001    
      0.0001    
      0.0001    
     88.5196    
     21.8849    
      0.0001    
      0.0001    
    265.8513    
      0.0001    
     26.7396    
     14.8784    
     48.1915    
     79.1697    
     29.2040    
    153.2414    
      0.0001    
     72.1119    
      0.0001    
      0.0001    
      0.0001    
      0.0001    
    258.9284    
    119.9427    
      0.0001    
      0.0001    
      0.0001    
     67.5534    
     36.6280    
      0.0001    
      0.0001    
    167.9297    
      0.0001    
      0.0001    
     74.8410    
     46.2843    
    312.1891    
    259.2325    
      0.0001    
     53.5111    
    101.1903    
      0.0001    
    101.2349    
      0.0001    
     55.9909    
      0.0001    
     77.4680    
    249.8200    
     39.4172    
     15.6570    
    118.1107    
      0.0001    
      0.0001    
    185.1413    
    137.3067    
      0.0001    
    204.3844    
     27.7073    
    108.7217    
    161.3212    
    202.0658    
      0.0001    
      0.0001    
      0.0001    
     89.7543    
     13.6086    
    159.0704    
    259.8429    
    168.6851    
    390.1707    
    125.6823    
      0.0001    
      0.0001    
    111.4087    
    214.3483    
      0.0001    
    111.4751    
    168.8642    
     80.5027    
      4.3919    
    233.6703    
     54.3609    
    240.9174    
    221.7268    
    183.3725    
      0.0001    
    209.7855    
    116.4673    
     37.8452    
    118.8957    
    145.2036    
     78.3754    
      0.0001    
    257.9593    
      0.0001    
     73.6939    
     95.1694    
     19.0104    
    250.8471    
    126.2610    
    116.7269    
     54.7630    
     54.7835    
    260.5653    
    373.9362    
    169.4272    
    116.8489    
    205.4140    
    100.1793    
    145.5808    
    164.7389    
     52.5747    
    198.3143    
     64.5243    
    236.7469    
    172.0242    
     69.3483    
      0.0001    
    181.6620    
    205.6469    
    215.2632    
    157.7818    
    121.9378    
    217.7229    
    114.8204    
    169.8219    
    174.6336    
    210.6067    
     86.2637    
    143.5882    
    105.3907    
    160.3688    
     55.3769    
    126.9375    
    174.7910    
    311.7685    
    311.7892    
      0.0001    
    311.8222    
    165.3114    
    389.1634    
    270.9367    
    196.5116    
     96.1030    
    220.5361    
    389.2589    
    148.7033    
    309.5911    
    367.5447    
    211.0374    
    319.2986    
    338.6203    
    184.7209    
    172.7688    
    108.2486    
    370.1038    
    120.2168    
    314.6083    
    235.2177    
    367.7635    
    172.9008    
    252.0919    
    216.0919    
     15.5548    
    290.6443    
    278.6305    
    134.7541    
    165.8610    
    216.2048    
    228.2228    
      0.0001    
    106.1933    
    149.2088    
    158.7933    
    254.7494    
    223.5390    
    194.7806    
    245.1920    
    199.6055    
    199.6286    
    402.0480    
     77.7704    
    319.9158    
    421.4849    
    450.6121    
    433.6493    
    387.6421    
    269.4304    
    312.7988    
    329.6978    
    358.6974    
    161.5366    
    291.1924    
    296.0259    
    149.6345    
    334.6407    
    209.5453    
    341.9242    
    128.2036    
    337.1358    
    147.3560    
    188.0675    
    356.5076    
    293.8051    
    178.5417    
    183.3531    
    257.7708    
    317.9863    
    204.9799    
    339.7386    
    224.2079    
    504.6055    
    209.8558    
      0.0001    
    255.5202    
    388.1953    
      0.0001    
    142.9002    
     88.0107    
    277.2575    
    330.2921    
    388.3066    
    378.6502    
    236.4639    
    332.7818    
    219.7023    
    299.0694    
    543.8977    
    157.4587    
    347.3622    
    306.3681    
    303.9779    
     52.5422    
     93.0574    
    340.2087    
    231.8900    
    517.2575    
    308.9096    
    340.2893    
    454.0940    
    524.6406    
    212.8062    
    408.0769    
    350.0458    
    415.3820    
    138.6521    
    217.6974    
    282.6026    
    145.8759    
    119.6118    
    391.2760    
    490.7706    
    374.3802    
    398.5946    
    427.6863    
    571.2647    
    459.2689    
    464.1429    
    507.9306    
    534.7446    
    476.3491    
    471.5090    
    201.2048    
    532.3827    
    684.0768    
    622.7981    
    464.3124    
    408.5424    
    440.0741    
    493.5398    
    681.7371    
    522.7888    
    564.2621    
    462.0178    
    593.6140    
    745.7692    
    637.6980    
    642.6153    
    596.1290    
    620.6116    
    829.7803    
    728.6384    
    713.8975    
    598.6616    
    549.8384    
    679.5565    
    652.5877    
    576.7466    
    718.9319    
    753.4197    
    746.0470    
    966.4871    
    800.3411    
    859.7250    
    859.7424    
   1003.9410    
    929.2527    
    964.0992    
   1116.5830    
    986.5623    
    837.5742    
    914.4435    
    949.2656    
   1164.3992    
   1298.1450    
   1257.6960    
    934.4078    
   1361.5882    
   1091.6930    
   1290.6470    
   1315.9880    
   1162.0310    
   1119.3490    
   1410.0040    
   1527.4613    
   1478.8920    
   1712.7080    
   1591.6390    
   1666.2870    
   1751.5621    
   1965.0140    
   2001.7011    
   1834.6410    
   1632.8841    
   1850.2861    
   2390.8710    
   2151.7770    
   2133.3130    
   2051.7020    
   2302.9390    
   2503.5312    
   2340.2650    
   2247.1901    
   2271.1020    
   2162.4904    
   2335.0070    
   2393.7480    
   2279.1503    
   2383.0890    
   2450.0100    
   2439.3103    
   2654.8012    
   2779.7634    
   2916.4770    
   2793.4300    
   2924.7490    
   2755.3322    
   2638.6662    
   3265.2180    
   2850.8583    
   3007.3410    
   3015.6250    
   2881.0131    
   2886.5050    
   2668.5764    
   3035.0051    
   2706.5852    
   2853.7330    
   2889.3370    
   2864.7170    
   2985.4840    
   2606.4741    
   2525.6170    
   2566.0361    
   2919.6020    
   2744.7860    
   2633.5981    
   2477.3380    
   2742.1223    
   2555.3570    
   2469.3391    
   2434.5124    
   2293.0744    
   2402.4280    
   2453.3210    
   2482.8520    
   2488.2373    
   2472.1484    
   2002.7353    
   2139.5292    
   2128.9910    
   2218.9030    
   2290.5980    
   1900.8420    
   1851.3613    
   1721.7090    
   1947.8980    
   1874.8432    
   1921.8080    
   1758.0010    
   2063.3281    
   1752.8574    
   1781.3810    
   1618.7070    
   1534.0270    
   1856.7660    
   1603.3340    
   1680.6000    
   1719.3542    
   1590.5410    
   1639.4154    
   1442.1614    
   1701.3360    
   1660.0770    
   1398.9223    
   1365.8920    
   1624.0802    
   1465.2280    
   1562.4670    
   1792.0530    
   1416.8430    
   1608.7350    
   1460.2084    
   1199.0960    
   1295.0570    
   1470.4714    
   1368.6260    
   1358.4840    
   1490.9614    
   1644.9001    
   1652.6473    
   1644.9342    
   1750.8120    
   1297.7480    
   1440.0144    
   1768.9974    
   1792.3540    
   1657.9170    
   1555.1262    
   1956.5002    
   1833.9680    
   1598.8120    
   1601.3930    
   2037.8110    
   2032.5770    
   1998.4940    
   2040.4930    
   2283.5820    
   2222.5583    
   2137.9490    
   2233.1960    
   2185.5434    
   1961.9560    
   2342.2580    
   2494.8032    
   2371.6372    
   2371.6533    
   2323.6713    
   2795.2710    
   2945.8063    
   2759.8933    
   3339.7400    
   2830.8190    
   3141.8670    
   3239.2031    
   3525.5480    
   3100.3520    
   3519.9310    
   3656.0732    
   3398.7970    
   3619.1464    
   3818.9850    
   3570.9530    
   3727.4291    
   3727.4410    
   3960.1110    
   3942.8000    
   4009.3112    
   3525.7740    
   3939.9630    
   4221.8810    
   3893.8774    
   3859.3730    
   3753.3160    
   3997.8530    
   3716.2140    
   4198.5844    
   4064.5810    
   4175.2460    
   4122.7773    
   4239.6200    
   4082.0810    
   4096.6350    
   4149.0720    
   4295.4200    
   4056.0083    
   4172.4660    
   4163.7280    
   4154.9850    
   4451.7900    
   4348.4604    
   4552.7230    
   4469.6040    
   4855.4990    
   4837.3960    
   5307.5380    
   5543.6680    
   5801.5844    
   6136.7324    
   6529.9990    
   6887.6132    
   7146.5180    
   7377.9702    
   7560.2231    
   7570.6123    
   7574.0810    
   7241.5781    
   7045.3623    
   6569.5703    
   6330.9620    
   5874.7373    
   5578.3320    
   5310.9150    
   5123.3730    
   4973.9820    
   4831.7230    
   5001.3770    
   5013.5580    
   5160.2153    
   5160.2340    
   5249.3630    
   5685.2130    
   5960.8984    
   6484.5122    
   6514.0180    
   6871.3403    
   7429.7841    
   7289.5850    
   7720.1720    
   7762.0060    
   7450.4510    
   6981.8990    
   6612.7661    
   6289.1621    
   6153.4404    
   5824.3940    
   5475.7133    
   5394.9160    
   4971.3480    
   5258.9260    
   4959.2314    
   4974.4370    
   5237.4160    
   5426.0550    
   5373.3290    
   5513.2700    
   5472.7610    
   5197.5330    
   5308.4310    
   4634.1840    
   4583.4892    
   4467.6391    
   3932.7131    
   4004.9800    
   3958.7253    
   3583.8710    
   4057.2092    
   4097.8990    
   3935.6990    
   4396.8040    
   4399.7690    
   5324.0970    
   5585.4500    
   6083.1860    
   6557.3574    
   7130.6860    
   7927.2710    
   8422.2451    
   9055.7841    
   9287.7832    
   9333.0060    
   9404.8130    
   8926.0664    
   8260.7714    
   7293.7810    
   6570.6933    
   5980.9510    
   5268.7963    
   4766.5200    
   4191.5530    
   3541.8010    
   3325.1372    
   3196.8190    
   3077.5970    
   2726.7990    
   2661.7150    
   2683.4130    
   2408.7730    
   2246.3030    
   2209.2160    
   1920.0340    
   2014.2403    
   2001.1510    
   1774.4390    
   1733.0311    
   1645.3070    
   1640.1773    
   1828.9992    
   1996.0070    
   1545.2011    
   1532.4130    
   1356.5230    
   1387.0223    
   1394.6671    
   1275.5083    
   1159.5730    
   1252.8100    
   1338.8610    
   1252.8360    
    991.9313    
   1432.9660    
   1326.2503    
   1240.2774    
   1263.0240    
   1217.6130    
   1265.5844    
   1316.1980    
   1301.0170    
   1407.6322    
   1187.4680    
   1134.7010    
   1494.3822    
   1614.8704    
   1479.0890    
   1379.7561    
   1555.8811    
   1681.8960    
   1461.2813    
   1607.2590    
   1839.9134    
   1952.0384    
   1983.4484    
   2225.8122    
   1884.2190    
   1674.2890    
   1879.0460    
   1814.0483    
   1306.4090    
   1218.0020    
   1273.5490    
   1276.0952    
   1130.0161    
   1425.8404    
   1808.9652    
   1109.9953    
   1115.0230    
   1177.8393    
   1380.1264    
   1558.8140    
   1558.8290    
   1157.7874    
   1772.7850    
   1840.2790    
   1674.5953    
   1702.9940    
   1926.3143    
   1902.8440    
   2004.8230    
   2067.8454    
   2471.5402    
   2562.9711    
   2649.4130    
   2657.5473    
   2935.6423    
   3065.0930    
   3312.5120    
   2924.7094    
   3323.7330    
   2663.0550    
   2568.5060    
   2622.5090    
   2633.3380    
   2274.2150    
   2147.1232    
   2133.9460    
   1835.4500    
   2157.7302    
   2274.2912    
   2047.1364    
   1768.0473    
   1633.8090    
   1459.5981    
   1631.2661    
   1549.1160    
   1523.5270    
   1423.9810    
   1375.6682    
   1063.1010    
   1135.7870    
   1380.7950    
   1063.1470    
   1304.7340    
   1254.1821    
   1223.9174    
   1201.2570    
    960.9296    
    933.5891    
    946.0355    
   1302.3142    
   1053.2851    
   1078.3230    
   1143.5272    
   1226.5890    
    958.5688    
   1277.1170    
   1080.9001    
   1335.3753    
   1186.3560    
   1393.8040    
   1396.3630    
    941.2648    
    809.9394    
   1040.9923    
   1148.7340    
   1123.6470    
   1011.0802    
   1360.8972    
   1106.1360    
   1103.6450    
   1093.6370    
   1455.1070    
   1373.6720    
   1542.0412    
   1554.8670    
   1444.9704    
   1652.5330    
   1678.3220    
   1896.1353    
   1836.2810    
   2005.9550    
   2040.0760    
   1961.4770    
   2192.9741    
   2333.6962    
   2155.9973    
   2008.6740    
   1652.7084    
   1570.4730    
   1573.0541    
   1475.8190    
   1179.3221    
   1086.4693    
   1164.2644    
    904.5239    
    810.4568    
    956.7383    
    604.0643    
    949.3046    
    724.2474    
    687.4056    
    633.4817    
    675.1640    
    618.8276    
   1029.1430    
    768.6585    
    996.7329    
    842.7722    
    545.6343    
    781.0520    
    729.3379    
    731.8139    
    976.8959    
   1124.3942    
    645.9311    
    575.0233    
    981.9382    
    934.6782    
    514.1267    
    560.4340    
    749.1780    
    677.9065    
    441.2999    
    558.0616    
    412.2499    
    778.8333    
    448.6430    
    195.5164    
    636.3461    
    502.1277    
    477.8291    
    429.3136    
    575.2802    
    322.9848    
    373.6929    
    347.1412    
    560.7018    
    820.9816    
    619.3650    
    262.8882    
    663.4806    
    439.1649    
    306.2523    
    303.8622    
    340.0390    
    558.3961    
    289.4581    
    668.4887    
    548.6849    
    308.7682    
    429.6055    
    311.2101    
    480.5953    
    282.3421    
    246.2979    
    335.3743    
    366.7769    
      7.5958    
      0.0001    
    172.0593    
    296.8934    
    641.7403    
    456.4626    
    224.8319    
    614.8691    
    629.5611    
    196.1092    
    354.8629    
    234.5071    
    386.3131    
    181.8025    
    289.8332    
    502.7739    
    454.2008    
    449.3648    
    551.5374    
      0.0001    
    100.6727    
    208.2656    
    273.1147    
    391.3164    
    179.5737    
     72.1541    
    234.7282    
    119.8606    
    379.3010    
    338.2577    
    278.0438    
    122.3038    
     38.9505    
    439.9048    
    405.9956    
    398.7538    
      0.0001    
    333.5519    
    268.5459    
    476.3983    
    693.7839    
     15.3290    
    215.7813    
    328.8156    
    343.3052    
     58.1687    
      0.0001    
     27.2974    
    295.1586    
     84.4167    
    333.7436    
    304.8384    
    353.0791    
    372.4161    
    242.3499    
    319.3535    
    297.6841    
    153.7446    
    433.0029    
    716.1838    
    513.1822    
    127.5258    
    117.9936    
    462.1823    
    153.8523    
    542.4818    
    266.5568    
    701.5553    
    334.0060    
    302.6922    
    266.6152    
    518.2134    
    314.7766    
    586.5170    
    358.2330    
    245.0608    
    669.7769    
    406.6375    
    269.1359    
    579.2767    
    247.5399    
    283.6107    
      0.0001    
     87.3042    
    274.0372    
    178.0815    
    650.3124    
    360.8434    
    214.0583    
    625.8679    
    334.3356    
    341.5847    
    348.8353    
    416.5537    
    161.4640    
    452.9410    
    594.1815    
    660.2748    
    204.6124    
    399.6967    
    453.0196    
    579.5980    
    484.6161    
    670.1716    
    474.9233    
    579.6597    
    557.7098    
    552.8439    
    453.1363    
    724.2885    
    329.7979    
    395.0330    
    370.8655    
    204.8295    
    450.7998    
    183.3046    
    300.9715    
    626.2791    
    778.5948    
    416.9324    
    431.4893    
    385.4968    
    397.6114    
    216.9657    
    463.0705    
    102.2195    
    492.2567    
    453.4100    
    609.3149    
    226.6432    
    468.0154    
    465.6036    
    176.3641    
    472.9199    
    272.3518    
    104.7451    
    303.6660    
    138.1831    
    133.4272    
    409.9562    
    555.7612    
    393.0424    
    260.4449    
    347.1656    
    102.4886    
    277.3184    
    477.9595    
    123.9996    
    383.4742    
    509.6075    
    143.1517    
    138.3874    
    463.4759    
    369.0436    
    422.2768    
    212.6303    
      0.0001    
     12.2716    
     55.0567    
    604.8659    
     33.6937    
    124.1990    
     19.4670    
    102.7625    
      0.0001    
    420.0126    
    556.1314    
     81.3705    
    478.2705    
    184.0824    
      0.0001    
    200.8751    
    461.3348    
    205.6918    
    100.5328    
     93.3939    
      0.6747    
      0.0001    
    408.0916    
    184.2157    
    263.3954    
      0.0001    
    442.0706    
      0.0001    
      0.0001    
      0.0001    
    273.0929    
    184.3332    
    352.6307    
