  11100 13  1 ##LUAG10.SP PUC001 BMW .000 # SI 060593 00.00   1        
  PROGRAM PE-FILECONVERT MAC VERSION 1.0                               
  USER BMW DATE & TIME  1993 03 12 00.25 14.00    9.9300    295K U     
 AU1 TM  50     0     0 LUAG             .440000 - .500000  .00010     
 FILE NAME ON IBM-PC  = LUAG10.SP         ON MAC= P12033.05            
 NO_POINTS  =   601.    pts   DATA_INTV =  .00010 _m                   
 MIN_LAMBDA =   .440000 _m     MIN_DATA =    .66750                    
 MAX_LAMBDA =   .500000 _m    MAX_DATA =    .84050                     
 SCANSPEED  = 15.000000 nm/min SLITWIDTH=   .20000 nmITA =   0.        
       RESP =    .500  sec        ISMS =   0.       DATE=93/05/06      
       INST = 509.                    ? =   0.                         
 ITHACA  CORP SAMPLE                                                   
 0:25:15  12-03-1993                                                   
  This spectra is part of Database LASERS
 Database LASERS was created by Pat Cross working 
 at NASA Langley Research Center, Internal Operations Group,
 Aerospace Electronics Systems Division, Remote Sensing 
 Technology Branch. phone:(757)864-1633   fax:(757)864-7894 
     e-mail p.l.cross@larc.nasa.gov 
     homepage http://aesd.larc.nasa.gov/laser/dbmain.htm
  EOH.(1X,F11.4)                                                       
   601.         
     19.4058    
      0.0001    
     22.6781    
     40.1714    
    109.0283    
     19.0585    
     70.7300    
    240.4751    
    135.2049    
    192.0898    
    170.3969    
     38.6450    
     12.2500    
    122.5973    
    238.4803    
    182.3089    
      0.0001    
    138.9773    
    107.5498    
     46.8715    
      0.9820    
      0.0001    
     18.8626    
     65.6323    
      0.0001    
    255.4035    
     54.6751    
      0.0001    
     40.8715    
    114.5934    
     17.3270    
    105.6381    
     57.1791    
     50.2747    
     48.2505    
    156.2924    
      0.0001    
      0.0001    
     71.8854    
    118.7544    
    128.9696    
    117.1471    
    120.0079    
    206.2812    
    108.5999    
    216.9499    
     48.3684    
    129.4323    
    208.3614    
    167.0291    
     62.2301    
    148.2437    
    119.2688    
     83.0099    
     66.3333    
    181.7867    
    118.4802    
    131.1372    
     72.8770    
     65.9708    
    252.7155    
     69.2350    
     98.9619    
    160.5806    
    215.0023    
    168.7626    
    156.9216    
     57.0840    
    147.9450    
      4.3283    
    136.5260    
    124.7075    
     76.2352    
    174.5331    
     28.3012    
    177.8150    
    139.0099    
    240.0609    
    127.6007    
    177.0084    
    150.4606    
    212.2093    
     70.6072    
     36.8962    
    142.3199    
     69.4109    
     82.0226    
    136.2141    
    180.7329    
    139.4886    
     91.0012    
    118.2919    
    135.8249    
     38.5825    
    136.6505    
     51.5937    
      0.0001    
     67.0440    
    143.1989    
    150.9504    
    197.9458    
    159.1237    
     44.7333    
    145.2568    
    101.6597    
    266.3829    
    136.7048    
    110.2173    
     66.6970    
     25.7082    
    192.2473    
     99.6496    
    185.7132    
    203.2966    
    203.7077    
     54.9556    
    194.7115    
     99.6762    
    220.0810    
    149.3878    
     88.7028    
    160.0009    
    106.6108    
    131.4599    
    266.8013    
     44.4482    
     59.4655    
    125.7645    
    312.8036    
    202.4987    
    207.8180    
    203.3233    
    208.6379    
     20.9584    
    243.8444    
     68.0317    
    134.3420    
    127.4171    
    166.9685    
    191.8813    
    104.2202    
    175.5443    
    114.8108    
    213.1472    
    100.9792    
    150.2574    
    354.7444    
    180.4530    
    222.5510    
    215.5957    
    257.7672    
    160.0421    
    189.8404    
    266.3683    
    318.5083    
    142.1132    
    144.9617    
    125.8164    
    219.2666    
    249.1515    
    149.0407    
    149.4471    
    270.0448    
    177.1828    
    406.6191    
    335.3316    
    188.1972    
    289.3095    
    321.7491    
    155.1528    
    322.5640    
    332.8392    
    193.0945    
    279.4472    
    240.5128    
    324.6025    
    305.2845    
    377.2680    
    417.2756    
    338.5580    
    462.7265    
    430.8859    
    500.8170    
    531.0933    
    671.4910    
    732.1973    
    770.3748    
    998.9367    
   1058.0650    
   1385.8521    
   1674.1780    
   2028.2920    
   2506.5280    
   2304.6470    
   2201.9580    
   2043.3390    
   2067.9211    
   2349.8340    
   3029.3840    
   3788.1831    
   4397.8420    
   4080.9150    
   3249.2660    
   2577.0234    
   2257.4850    
   2058.1284    
   2269.1550    
   2553.8532    
   2957.4530    
   2837.4421    
   2316.9682    
   1687.9560    
   1400.3640    
   1037.5351    
   1002.2333    
    941.5592    
    870.9485    
    901.7581    
    803.5104    
    663.1084    
    610.9534    
    668.9280    
    589.2808    
    622.1717    
    655.0989    
    658.0148    
    756.3362    
    663.8280    
    689.3012    
    744.9645    
    841.1901    
    978.5341    
   1101.4511    
   1225.1242    
   1375.4831    
   1547.8950    
   1658.5332    
   1690.5461    
   1780.7672    
   1820.9224    
   1739.2492    
   1742.2980    
   1653.0552    
   1603.5390    
   1480.9790    
   1361.7540    
   1528.7833    
   1461.3280    
   1647.5790    
   1592.8312    
   1519.9380    
   1379.7290    
   1297.2663    
   1143.2133    
    929.3470    
    947.5202    
   1037.0030    
   1004.2690    
    941.1050    
    994.8826    
    888.6665    
    798.1315    
    565.4807    
    710.9064    
    606.1860    
    581.6404    
    594.5091    
    497.8413    
    433.7964    
    456.4811    
    456.8802    
    539.2151    
    470.0786    
    475.4358    
    488.2393    
    518.4363    
    498.9673    
    464.6417    
    517.1516    
    582.2607    
    650.0756    
    513.3842    
    563.5287    
    563.9324    
    606.7043    
    574.6910    
    669.9904    
    675.3949    
    698.3447    
    718.8099    
    804.6973    
    744.7090    
    714.9858    
    717.8980    
    678.1932    
    606.1092    
    467.2794    
    557.0742    
    475.5157    
    406.6338    
    397.1523    
    358.0888    
    319.1010    
    405.7568    
    342.0438    
    394.2065    
    310.8565    
    348.1635    
    467.1111    
    373.6000    
    356.7483    
    590.0497    
    755.6033    
    658.2492    
    746.3486    
    561.7548    
    544.7413    
    639.8429    
    675.2458    
   1008.6820    
   1324.4480    
   1658.3664    
   1971.2011    
   1851.8760    
   1541.6750    
   1072.2190    
    973.3412    
    721.4041    
    619.2560    
    448.2330    
    522.9810    
    496.0867    
    536.1919    
    353.5813    
    427.9695    
    339.6068    
    290.8611    
    401.9978    
    323.5838    
    355.9602    
    440.2361    
    450.5212    
    389.1842    
    374.7875    
    325.9628    
    346.0359    
    348.8890    
    317.3180    
    361.9875    
    426.5055    
    421.9617    
    350.8679    
    504.4110    
    534.5855    
    577.2358    
    652.4215    
    645.3237    
    590.8693    
    708.6332    
    599.1315    
    505.1016    
    463.3911    
    453.8938    
    318.7425    
    301.9488    
    455.0775    
    413.4814    
    290.8697    
    313.3499    
    220.6587    
    316.5923    
    255.6892    
    185.2141    
    310.4079    
    303.4429    
    223.0244    
    260.1153    
    236.0363    
    180.2629    
    239.2688    
    281.2866    
    271.8833    
    299.2388    
    233.5112    
    180.1938    
    231.8547    
    224.9181    
    139.9649    
    164.7050    
     63.0322    
    111.9640    
     95.3539    
     83.6174    
    173.9797    
     77.1257    
     65.3914    
    175.1676    
    175.5552    
     90.8300    
     66.9632    
    215.7728    
    152.7709    
     56.0318    
    129.2330    
     37.4422    
    154.3447    
    193.7224    
    142.9595    
    199.3873    
    207.1035    
     78.5622    
    193.2473    
    157.0946    
    189.1569    
    260.3780    
    170.4417    
    209.8461    
    188.2881    
     69.5844    
    111.2132    
      0.0001    
     80.4521    
    229.2865    
    144.3717    
    103.4563    
      0.0001    
     99.3938    
      0.0001    
     85.6211    
    175.9293    
     21.0353    
     69.8241    
      0.0001    
     75.4579    
     32.2748    
      1.2534    
     91.1797    
     98.8425    
     31.4223    
      0.0001    
     24.9498    
     42.2694    
     91.0965    
    137.6150    
    128.2834    
    167.5822    
    150.9420    
     71.2372    
    190.6718    
    176.4477    
    196.3225    
     94.6145    
    336.5096    
    290.3216    
    393.8160    
    502.7764    
    677.1230    
    660.0491    
    803.0795    
    536.5322    
    564.2015    
    288.5496    
    313.4316    
    468.8191    
    279.9329    
    246.0913    
    278.2629    
    183.4682    
    142.5073    
     79.8229    
      0.0001    
    133.9613    
     78.5695    
     86.2215    
    127.8424    
    145.2362    
      0.0001    
     68.4039    
     90.5912    
    178.4061    
    159.3330    
    162.1514    
     99.4132    
     82.8447    
     37.2691    
      0.0001    
     18.7292    
      0.0001    
     65.4252    
     27.1351    
     80.7233    
      0.0001    
     74.2361    
     98.8413    
      0.0001    
     12.5647    
      0.0001    
    107.6681    
    168.7529    
     57.6005    
     87.0281    
     60.7936    
     58.7587    
     93.0309    
     86.1515    
    108.3440    
     94.1948    
    118.8220    
     92.5473    
     78.4056    
     52.1907    
     11.5329    
     45.7163    
     41.2685    
      0.0001    
    112.2175    
     61.7617    
      0.0001    
     40.7909    
     77.4378    
      5.3717    
      5.7560    
      0.0001    
     30.6516    
     52.7709    
      0.0001    
     84.9833    
     20.1364    
      0.0001    
     52.2942    
      0.0001    
     40.9906    
     36.5426    
     90.1113    
    124.4128    
     93.2999    
     91.2738    
    140.1232    
     21.9703    
     65.8226    
     56.5362    
     81.0993    
    108.1183    
      0.0001    
      0.0001    
     29.4926    
     61.2716    
      0.0001    
     52.3761    
      0.0001    
     67.6486    
    147.9523    
     32.1918    
     68.7966    
     11.2578    
     62.3217    
      0.0001    
      0.0001    
    148.2231    
     32.4780    
     93.2637    
     71.8818    
     67.4294    
    101.6778    
     29.5767    
    109.7091    
      8.6538    
     16.2673    
      0.0001    
     87.0461    
     46.3577    
     44.3291    
     64.0257    
     49.9208    
     72.0432    
     43.4532    
    128.4718    
     75.6146    
    134.0798    
     59.4691    
     14.0315    
      0.0001    
     89.6217    
    126.3081    
     54.1479    
     69.0194    
      0.0001    
     38.4093    
     38.7942    
     80.2146    
      0.0001    
     49.5935    
     35.5023    
    108.3572    
     96.6385    
     72.8541    
     82.9014    
    165.6225    
    100.5931    
    122.7567    
    127.9813    
