  11100 13  1 ##LUAG11.S PUC001 BMW  .000 # SI 060593 00.00  01        
  PROGRAM PE-FILECONVERT MAC VERSION 1.0                               
  USER BMW DATE & TIME  1993 03 12 00.29 12.00    9.9300    295K U     
 AU1 TM  50     0     0 LUAG             .340000 - .375000  .00010     
 FILE NAME ON IBM-PC  = LUAG11.SP         ON MAC= P12033.06            
 NO_POINTS  =   351.    pts   DATA_INTV =  0.00010 _m                  
 MIN_LAMBDA =   .340000 _m     MIN_DATA =    .53770                    
 MAX_LAMBDA =   .375000 _m    MAX_DATA =    .85210                     
 SCANSPEED  = 15.000000 nm/min SLITWIDTH=   .20000 nmITA =   0.        
       RESP =    .100  sec        ISMS =   0.       DATE=93/05/06      
       INST = 509.                    ? =   0.                         
 ITHACA CORP SAMPLE                                                    
 0:29:12  12-03-1993                                                   
  This spectra is part of Database LASERS
 Database LASERS was created by Pat Cross working 
 at NASA Langley Research Center, Internal Operations Group,
 Aerospace Electronics Systems Division, Remote Sensing 
 Technology Branch. phone:(757)864-1633   fax:(757)864-7894 
     e-mail p.l.cross@larc.nasa.gov 
     homepage http://aesd.larc.nasa.gov/laser/dbmain.htm
  EOH.(1X,F11.4)                                                       
   351.         
    305.3344    
    205.5572    
    118.5370    
    260.1871    
    445.1141    
    125.2704    
    109.5389    
    179.6767    
     63.4621    
    162.8727    
    169.2056    
    251.8500    
     93.6062    
    210.3593    
     42.7025    
    186.1518    
    170.3812    
    196.3722    
    131.5239    
    255.8388    
    166.2543    
    148.0526    
    354.0003    
    126.3902    
     15.4864    
      0.0001    
    187.0521    
    284.4666    
    357.5719    
     54.2622    
    217.3018    
    233.4736    
    269.3732    
    216.6368    
     39.4136    
    192.4521    
    206.1478    
     70.4831    
    245.8579    
     31.8876    
    258.5332    
     59.0778    
    320.5439    
    108.2764    
     41.4008    
    265.6153    
    474.8974    
    302.9359    
    110.4635    
    392.2700    
    363.9799    
    173.4082    
      0.0001    
    271.9977    
    283.2576    
      0.0001    
     85.1581    
      8.6995    
      0.0001    
     79.6421    
    149.4035    
     19.2027    
    135.1167    
    479.0093    
    458.0629    
    207.8640    
    351.9601    
    237.6640    
    379.4808    
      0.0001    
    256.6242    
    103.8582    
    323.4081    
    258.3873    
    169.1173    
    332.5609    
    115.7730    
    114.7383    
    302.2998    
    311.0845    
    255.9494    
    103.2995    
    344.8598    
    380.8082    
    180.7268    
    408.3244    
    166.4226    
    187.3805    
     66.8958    
    124.2714    
    191.5880    
    369.8188    
    138.2351    
    323.3423    
    472.9334    
    345.8454    
    381.7576    
    678.9332    
    298.3798    
    351.4421    
    195.8158    
    378.8912    
    402.4975    
    421.1833    
    373.2208    
    560.3463    
    277.6616    
    458.9250    
    391.1450    
    311.3162    
    391.4681    
    373.1474    
    483.2413    
    432.6888    
    439.0275    
    405.8511    
    570.7361    
    579.5955    
    437.1921    
    622.2249    
    608.6716    
    550.3701    
    571.6352    
    592.9351    
    534.6817    
    688.0156    
    691.9053    
    643.3455    
    817.5831    
    616.2306    
    607.6607    
    487.4435    
    642.8298    
    539.7738    
    790.7422    
    709.4290    
    695.8156    
    862.8322    
    983.0022    
    729.9988    
    809.1283    
    855.7938    
    741.6773    
    876.2091    
    766.9985    
    866.3812    
    983.9742    
    934.7574    
    974.0846    
   1145.8250    
   1009.8002    
   1133.2811    
   1073.5270    
   1506.8580    
   1306.5422    
   1236.0110    
   1576.0893    
   1501.9980    
   1875.6523    
   1890.2680    
   2179.6530    
   2505.9431    
   2848.6580    
   3907.2631    
   6476.4170    
   8175.9830    
   7093.3470    
   5437.8320    
   3803.3000    
   3101.3200    
   2776.6020    
   3688.4940    
   5325.1720    
   6652.3740    
   6098.5600    
   7126.3510    
   8901.4404    
   7966.0312    
   5364.8540    
   3601.4311    
   2812.5340    
   2651.2680    
   1929.9750    
   1838.8652    
   1874.5430    
   2645.8032    
   3302.5710    
   4125.5550    
   4686.8160    
   5767.0371    
   7482.5112    
   7196.4770    
   6185.3920    
   4362.4710    
   3347.6290    
   3097.8530    
   3093.6210    
   3066.9820    
   2272.3830    
   1692.8380    
   1722.9950    
   1479.7280    
   1634.3033    
   1289.3900    
   1411.5490    
   1438.7172    
   1424.6050    
   1400.2030    
   1209.3310    
   1428.7220    
   1949.9410    
   2036.1720    
   2565.2634    
   3102.9430    
   3586.3161    
   3650.9150    
   3548.9243    
   3558.8830    
   2757.0920    
   2263.5490    
   1873.8700    
   1762.2660    
   1753.1600    
   1530.5954    
   1578.6300    
   1691.9120    
   1756.0140    
   1572.3550    
   1552.9780    
   1360.9151    
   1516.8730    
   1128.8873    
   1372.7160    
   1174.7923    
   1206.6912    
   1305.0473    
   1314.0890    
   1387.2480    
   1615.9331    
   1560.2274    
   1455.6604    
   1493.1343    
   1702.0883    
   2127.8180    
   2166.5060    
   2425.7140    
   2022.9870    
   1974.0743    
   2015.1190    
   2066.8560    
   2057.6010    
   2058.9663    
   1557.2330    
   1314.2360    
   1348.8650    
   1283.7570    
   1150.2920    
   1174.4820    
   1262.3300    
   1113.8460    
   1092.4480    
    743.0375    
   1001.8624    
   1466.3730    
   1014.6530    
   1005.9370    
   1232.4540    
   1101.9571    
    919.6526    
   1051.6650    
    952.4473    
   1132.6751    
    720.7558    
    809.0696    
    977.9493    
    881.6228    
    905.4783    
    802.0487    
    753.6990    
    609.1318    
    529.3309    
    255.2272    
    326.9120    
    372.0444    
    201.2679    
    472.3853    
    281.3743    
    516.7291    
    291.3520    
    336.3899    
    301.3322    
    179.3763    
    345.3055    
    143.5580    
     94.4505    
    187.1963    
    118.7628    
    115.3058    
    111.8542    
    101.2072    
     64.1979    
    192.8945    
    177.3766    
    104.2093    
    213.8217    
      0.0001    
     79.4782    
    605.1393    
     53.4497    
    387.7155    
    246.0512    
     38.3612    
    219.7885    
    264.5923    
     42.4077    
     96.4081    
    309.7715    
    323.2325    
    580.6594    
      0.0001    
      0.0001    
    304.3948    
    192.2970    
    350.6993    
      0.0001    
    239.7049    
    340.1843    
    460.6641    
    294.4520    
      0.0001    
    246.4230    
    161.1251    
    331.2904    
      0.0001    
    215.6551    
    250.7316    
    336.6634    
    217.2690    
    283.7178    
     73.6276    
    223.7017    
     42.8805    
    415.0757    
    119.6710    
    149.7736    
    399.6649    
    350.0764    
      0.0001    
      0.0001    
      0.0001    
      0.0001    
