  11100 11  1 02T3.SP    PUC068 TLL  .000 # S1 072588 00.01   1        
  PROGRAM PE-CONVERT VERSION 02.30                                     
  USER TLL DATE & TIME  1988 08 09 14.06 03.01    4.0000    295K #     
 AU1 TM  75     0     0 YAG              .300000 - 1.950000 .00020     
 FILE NAME ON PE-3600 = 002T3.SP          ON PC = 002T0003.SP          
 NO_POINTS  =  8251.    pts   DATA_INTV =  .000200 æm                  
 MIN_LAMBDA =   .300000 æm     MIN_DATA =  0.000000                    
 MAX_LAMBDA =  1.950000 æm     MAX_DATA =  61305.00                    
 SCANSPEED  = .03000000 æm/min SLITWIDTH=   .00020 æmITA =   0.        
       RESP =    .500   sec        ISMS =   0.       DATE=88/07/25     
       INST = 509.                    ? =   0.                         
 FILES NP07258.06 + NP08108.04 + NP08158.01 WITH THE APPROPRIATE       
 RECORDS DELETED TO AVOID DUPLICATION OF WAVELENGTHS                   
  This spectra is part of Database LASERS
 Database LASERS was created by Pat Cross working 
 at NASA Langley Research Center, Internal Operations Group,
 Aerospace Electronics Systems Division, Remote Sensing 
 Technology Branch. phone:(757)864-1633   fax:(757)864-7894 
     e-mail p.l.cross@larc.nasa.gov 
     homepage http://aesd.larc.nasa.gov/laser/dbmain.htm
  EOH     (1X,F11.4)                                                   
  8251.         
    708.2258    
    907.7853    
    955.7217    
    546.7997    
    757.8047    
    980.5657    
    501.3039    
    811.5931    
    495.0040    
    482.5852    
    736.5961    
    815.3865    
    554.4484    
    703.1454    
    881.6288    
    453.2893    
    366.9752    
    291.1182    
    933.1945    
    619.7332    
    720.9470    
    582.3179    
    693.7493    
    345.7025    
    530.3802    
    724.3479    
    530.0859    
    546.4050    
    622.5389    
    638.8897    
    279.2575    
    338.3956    
    576.4609    
    565.9738    
    454.7207    
    586.1974    
    390.7619    
    627.0443    
    608.2678    
    468.1184    
    351.0719    
    611.7408    
    562.0634    
    664.9420    
    551.3108    
    614.9355    
    495.3235    
    602.0776    
    486.6247    
    484.3231    
    342.6945    
    414.0810    
    491.7675    
    606.6958    
    542.6101    
    441.7258    
    628.5272    
    353.1453    
    481.9127    
    397.5924    
    510.0731    
    511.8292    
    429.4819    
    339.1680    
    420.6848    
    344.6977    
    418.0165    
    475.0787    
    558.9429    
    370.0087    
    537.7252    
    545.6038    
    596.6690    
    405.4966    
    401.0649    
    251.7316    
    650.8436    
    355.0522    
    477.4665    
    364.5551    
    421.4387    
    400.6161    
    392.0653    
    408.0479    
    462.9309    
    639.1592    
    554.4464    
    463.8095    
    477.7514    
    637.5369    
    626.8317    
    603.7849    
    558.1609    
    457.2801    
    489.6306    
    495.3526    
    376.2887    
    284.1127    
    627.5065    
    458.8148    
    571.1226    
    509.1303    
    605.1432    
    418.1823    
    354.4417    
    374.3951    
    290.3761    
    186.2739    
    344.4671    
    448.1362    
    566.4800    
    416.5332    
    232.7138    
    524.0085    
    331.4557    
    607.1418    
    592.2645    
    462.6688    
    634.3917    
    613.3315    
    379.4720    
    483.1507    
    706.3863    
    656.4653    
    452.9761    
    511.7759    
    628.1455    
    716.0598    
    518.3698    
    579.3126    
    451.8443    
    637.7467    
    518.2491    
    472.6949    
    374.1718    
    532.9670    
    499.6625    
    431.6690    
    586.6035    
    491.8353    
    462.6489    
    500.9161    
    453.3345    
    306.0518    
    372.6373    
    469.9781    
    473.4807    
    460.6332    
    392.7208    
    422.7124    
    593.8877    
    456.2090    
    422.9575    
    663.8718    
    495.2400    
    382.4171    
    345.1692    
    450.5086    
    394.8382    
    416.6335    
    371.1984    
    507.2338    
    323.1672    
    385.6057    
    382.9364    
    435.2773    
    416.2895    
    362.7083    
    412.9629    
    471.4508    
    534.1237    
    594.8604    
    359.4717    
    546.4485    
    341.8921    
    485.8563    
    519.9023    
    380.5736    
    400.2591    
    552.6153    
    566.2495    
    471.5872    
    389.4070    
    421.2930    
    373.7970    
    458.6306    
    264.8170    
    292.5154    
    483.0476    
    680.8116    
    559.2401    
    295.8241    
    470.0157    
    659.4563    
    249.1244    
    378.2881    
    395.8743    
    285.4970    
    559.5829    
    359.1497    
    125.6158    
    317.0962    
    436.2818    
    496.6808    
    782.7138    
    536.0055    
    295.1859    
    507.9725    
    548.0428    
    416.8289    
    499.5866    
    447.8830    
    618.5864    
    306.1821    
    494.4914    
    514.1151    
    448.1331    
    388.3830    
    532.1906    
    419.3651    
    430.7921    
    364.9809    
    455.6841    
    383.7277    
    235.0002    
    331.4244    
    458.6369    
    574.0674    
    487.5893    
    442.0012    
    396.4765    
    634.2027    
    435.5259    
    546.7560    
    566.3506    
    437.1656    
    438.3856    
    676.3442    
    491.6972    
    535.7117    
    284.9958    
    485.1487    
    608.7477    
    448.8964    
    607.0663    
    692.1486    
    468.7677    
    614.7467    
    379.7197    
    523.2561    
    708.3604    
    668.5900    
    647.2679    
    636.1814    
    649.6304    
    718.3712    
    746.1968    
    891.2521    
    908.9073    
    990.5508    
   1033.0637    
    865.0438    
   1278.2863    
    972.4891    
    981.9084    
   1063.6990    
   1013.1425    
   1336.1998    
   1216.5319    
   1248.8823    
   1362.6102    
   1238.6886    
   1346.1046    
   1422.4661    
   1532.5581    
   1706.2329    
   1855.3647    
   2034.9656    
   2620.6418    
   3831.5366    
   6218.1274    
   7349.0537    
   4790.4517    
   4163.6143    
   5783.5825    
   9499.6523    
  11088.6289    
   4643.6890    
   2325.3901    
   1863.5748    
   1704.0575    
   2131.6616    
   2331.9617    
   4072.7021    
   5552.4404    
   6999.3643    
   4924.1558    
   3676.6145    
   3381.5842    
   2994.8176    
   1992.3665    
   1581.4388    
   1656.1014    
   1459.9440    
   1694.0603    
   1581.5679    
   1848.2488    
   1906.5146    
   2642.8081    
   3842.0107    
   4377.5474    
   2924.5923    
   2071.2441    
   1710.0178    
   1725.8356    
   1520.9349    
   1486.3967    
   1691.0846    
   1841.9803    
   2059.4822    
   2227.0103    
   2399.6689    
   2331.9673    
   2418.9724    
   1930.8667    
   1722.6416    
   1246.6771    
   1112.9708    
    948.9065    
    960.2383    
   1016.9153    
    962.3036    
   1016.9168    
   1168.8524    
   1147.0968    
   1262.1946    
   1074.6895    
    781.5887    
   1016.8735    
    687.5222    
    844.0813    
    553.0283    
    629.3669    
    540.8215    
    495.1129    
    289.7216    
    236.3094    
    313.9317    
    387.6844    
    354.3115    
    442.3276    
    239.3009    
    513.2849    
    283.6129    
    129.7013    
    211.0740    
    318.8674    
    142.7107    
    270.4210    
    255.2876    
     67.4589    
    152.6718    
    211.9341    
    239.0755    
    217.9173    
    261.1675    
    328.6830    
    281.2495    
    316.4994    
    293.2687    
     75.2109    
    382.0066    
    324.4054    
    424.3856    
    409.1637    
    126.1246    
    455.6120    
    190.2741    
    368.5255    
    539.5994    
    414.9046    
    482.6713    
    233.2383    
    531.2227    
    410.6104    
    264.2547    
    281.3099    
    292.3275    
    222.8177    
    141.4189    
     88.2468    
    399.0023    
    426.2253    
    350.3815    
      0.0000    
    173.1132    
    234.3168    
    327.8752    
    258.3005    
    295.4652    
    344.7720    
    289.2555    
    358.7215    
    418.2157    
    344.4178    
    337.2680    
    356.3364    
    399.6500    
    333.9570    
    318.7438    
    174.8657    
    296.3853    
    416.3250    
    340.5180    
    301.1188    
    552.6933    
    264.6780    
    205.2823    
    326.8821    
    327.7796    
    270.2826    
    363.8492    
    284.1408    
    297.1097    
    318.1423    
    296.8787    
    195.2573    
    244.3415    
    295.5122    
    300.4229    
    273.1340    
    435.3194    
    248.7553    
    237.5776    
    369.3071    
    366.1488    
    274.3798    
    212.9642    
    390.9630    
    387.7974    
    372.5277    
    268.6838    
    303.7469    
    314.6744    
    329.6371    
    147.7180    
    206.7227    
    416.9229    
    337.1123    
    426.7201    
    236.2517    
    305.4590    
    306.3136    
    250.8711    
    299.9697    
    268.6446    
    111.0956    
    260.2982    
    404.1075    
    288.1190    
    319.1423    
    366.3093    
    403.4457    
    323.6825    
    288.3136    
    281.1097    
    356.4017    
    170.4086    
    227.3839    
    326.6912    
    424.2702    
    340.4333    
    423.9159    
    215.4895    
    280.5665    
    287.4214    
    230.0064    
    262.9528    
    384.4991    
    415.5681    
    283.4981    
    393.0085    
    216.8849    
    392.6262    
    399.4919    
    205.3021    
    272.3282    
    345.5263    
    310.1272    
    204.5425    
    307.7258    
    407.1945    
    245.0705    
    201.7611    
    190.5452    
    257.5173    
    236.2520    
    444.3009    
    348.3564    
    274.7780    
    287.6265    
    342.7063    
    269.1401    
    243.8479    
    351.1272    
    321.7502    
    342.6525    
    303.2324    
    320.1012    
    429.6239    
    384.0546    
    380.8125    
    244.9377    
    289.8750    
    451.7091    
    422.2349    
    292.2219    
    299.0285    
    317.8885    
    314.6467    
    442.2641    
    215.8767    
    176.6073    
    305.6942    
    202.1744    
    259.0651    
    362.2922    
    266.6248    
    375.9047    
    270.1655    
    246.8655    
    384.2421    
    397.0873    
    241.1395    
    265.9654    
    304.8568    
    293.5711    
    226.1509    
    260.9819    
    340.0421    
    471.7114    
    313.4250    
    201.8992    
    250.7277    
    197.4001    
    298.3661    
    317.1880    
    309.9061    
    370.9423    
    407.9211    
    296.0895    
    296.8353    
    420.2278    
    320.4065    
    393.5257    
    187.6093    
    318.6151    
    315.3386    
    308.0485    
    282.6998    
    213.3127    
    284.1731    
    294.9402    
    386.0828    
    300.4213    
    425.7936    
    317.9419    
    310.6418    
    323.4156    
    243.9302    
    256.6775    
    139.3977    
    318.2954    
    216.8019    
    337.8156    
    268.3167    
    315.1696    
    341.9885    
    324.6364    
    207.1295    
    195.8486    
    296.6964    
    363.6656    
    260.0448    
    340.9858    
    297.5495    
    210.1419    
    343.1251    
    273.6278    
    270.3300    
    327.1898    
    358.0206    
    316.5664    
    265.1501    
    265.8562    
    314.6714    
    285.2999    
    330.1270    
    190.6393    
    331.5312    
    282.0949    
    316.8799    
    333.6310    
    246.1401    
    276.8734    
    343.7483    
    304.3224    
    301.0044    
    245.6122    
    374.6414    
    267.0208    
    400.1472    
    250.3836    
    285.1174    
    321.8864    
    306.5321    
    357.3775    
    269.8376    
    184.5274    
    331.3369    
    384.2217    
    332.7039    
    203.2463    
    406.3654    
    272.6162    
    337.4367    
    452.6642    
    382.9600    
    237.3080    
    338.1387    
    292.7079    
    371.6028    
    360.2313    
    188.7217    
    351.5427    
    246.0276    
    276.7146    
    235.3692    
    222.0419    
    314.7837    
    393.7091    
    312.1069    
    340.8414    
    301.4190    
    368.2580    
    272.7108    
    307.4179    
    318.0963    
    178.7610    
    321.4254    
    322.0853    
    254.6687    
    105.6476    
    287.9990    
    425.0824    
    251.2964    
    293.9723    
    210.6338    
    217.2811    
    299.9416    
    206.6028    
    261.2178    
    358.0159    
    160.6614    
    301.1900    
    400.1068    
    344.5671    
    281.1119    
    241.7594    
    388.6375    
    191.1233    
    311.7251    
    348.4380    
    329.0331    
    237.6308    
    256.2595    
    250.9013    
    299.5547    
    272.1792    
    308.8369    
    209.5063    
    226.1181    
    270.7268    
    243.3745    
    378.1619    
    350.7190    
    467.8253    
    299.9053    
    344.5974    
    251.1687    
    275.7892    
    214.4768    
    243.0648    
    245.6889    
    332.3455    
    385.0954    
    413.8220    
    529.1044    
    503.5432    
    315.4455    
    228.0966    
    414.9362    
    381.4402    
    345.9743    
    346.5949    
    215.2326    
    329.8074    
    406.6078    
    277.0155    
    265.6390    
    328.2694    
    366.9533    
    351.5348    
    278.0972    
    360.7777    
    443.6625    
    231.9861    
    294.5435    
    291.1564    
    283.7671    
    296.3748    
    525.7761    
    462.0047    
    328.2174    
    286.8094    
    341.4441    
    354.0673    
    366.6918    
    325.2404    
    357.8822    
    430.6877    
    333.0562    
    279.6493    
    344.2672    
    338.8600    
    359.4905    
    384.1353    
    336.6581    
    393.3558    
    363.8854    
    428.6553    
    423.2315    
    351.6552    
    342.2369    
    340.8313    
    367.4567    
    404.1325    
    474.9927    
    491.6674    
    261.8153    
    294.3731    
    340.9695    
    397.6516    
    350.1515    
    394.8155    
    409.4416    
    363.9330    
    386.5543    
    397.1615    
    431.8459    
    348.2505    
    424.9888    
    453.6724    
    400.0803    
    474.9242    
    369.1869    
    488.1435    
    416.4431    
    423.0411    
    375.5081    
    426.2023    
    384.6812    
    479.5581    
    379.8237    
    382.4033    
    455.1765    
    497.9365    
    458.3312    
    470.9534    
    487.5987    
    538.4449    
    470.6643    
    567.7750    
    544.1871    
    556.8355    
    491.0246    
    590.2060    
    560.5563    
    603.4366    
    711.0310    
    780.4383    
    856.0845    
   1044.0648    
   1276.2753    
   1998.4073    
   3188.7366    
   3315.8936    
   3155.0242    
   4156.2886    
   4601.5884    
   3918.3176    
   3148.5615    
   3755.0825    
   3484.2336    
   2174.7317    
   1578.4823    
   1277.3966    
   1019.8098    
    892.0377    
    740.4666    
    769.3666    
    727.4137    
    721.9013    
    724.4756    
    741.2144    
    759.9854    
    916.8078    
    962.1433    
   1148.5796    
   1338.1157    
   1757.4111    
   2226.4314    
   2119.2563    
   1775.7485    
   1446.0857    
   1423.9099    
   1414.1310    
   1542.9264    
   1462.7432    
   1242.8009    
   1179.7400    
   1245.9465    
   1254.7058    
   1146.5400    
    993.8552    
    963.8356    
   1023.4880    
    981.2120    
   1010.2895    
   1002.6746    
   1103.2642    
   1122.2102    
    943.1851    
    874.6053    
    856.8724    
    719.6754    
    758.6378    
    613.7894    
    612.3120    
    572.5776    
    623.4556    
    617.9454    
    539.9848    
    734.0596    
    915.0311    
   1031.6395    
   1128.1896    
   1573.5812    
   1911.7002    
   1922.7007    
   1542.0154    
   1110.3855    
    937.5712    
    700.9672    
    768.2068    
    738.3951    
    662.1810    
    533.8592    
    693.5011    
    609.3370    
    646.1318    
    588.2391    
    691.5619    
    599.3513    
    529.4915    
    582.2844    
    466.3117    
    649.7892    
    549.6597    
    546.1594    
    673.5347    
    738.6716    
    714.9443    
    794.3279    
    687.7146    
    601.5630    
    547.7792    
    602.5961    
    524.7007    
    543.2974    
    584.0208    
    594.5968    
    617.2520    
    545.3541    
    493.6663    
    414.0324    
    366.5475    
    333.1027    
    385.5590    
    444.1076    
    422.5937    
    627.8992    
    664.6786    
    522.3463    
    406.6196    
    333.1862    
    371.6432    
    460.1964    
    314.7559    
    285.3489    
    295.8211    
    428.1764    
    308.7954    
    353.2068    
    212.2211    
    382.1850    
    356.7171    
    301.3451    
    351.7321    
    312.3166    
    292.8831    
    369.2100    
    335.7665    
    372.2109    
    288.9035    
    491.2963    
    491.7949    
    701.4657    
    734.2642    
    742.8422    
    801.9706    
    717.5829    
    524.8641    
    391.1722    
    323.7793    
    320.2842    
    225.1826    
    279.4177    
    385.6530    
    324.2561    
    300.8208    
    297.3286    
    240.0737    
    262.4575    
    338.6840    
    267.4212    
    273.8835    
    346.1392    
    288.8047    
    283.3164    
    271.8564    
    220.6163    
    298.7284    
    311.1733    
    291.7312    
    236.4830    
    221.0639    
    243.4202    
    257.8350    
    286.1919    
    254.8234    
    247.3500    
    265.7405    
    294.1007    
    189.1719    
    213.4912    
    239.8162    
    228.3677    
    206.9886    
    300.9754    
    225.8330    
    258.1332    
    212.8829    
    211.3723    
    249.6239    
    242.1477    
    274.4569    
    266.9742    
    285.3647    
    281.8634    
    258.4536    
    258.9294    
    311.1747    
    305.6693    
    316.1057    
    354.4659    
    251.3576    
    251.8311    
    260.2619    
    256.7555    
    303.0066    
    283.5676    
    264.1377    
    294.4666    
    261.1003    
    273.5125    
    283.9305    
    278.4281    
    239.1182    
    257.4826    
    299.7432    
    276.3268    
    290.7245    
    289.2008    
    255.8455    
    210.6022    
    262.7433    
    293.0574    
    229.8805    
    222.3974    
    324.3301    
    308.8576    
    275.4807    
    262.0179    
    244.5890    
    308.7170    
    287.2791    
    216.1721    
    292.1843    
    256.8411    
    239.4095    
    237.8827    
    262.1957    
    256.6921    
    269.0823    
    231.7777    
    264.0333    
    372.0480    
    314.7007    
    305.2057    
    291.7275    
    246.4443    
    280.7034    
    277.1806    
    329.3925    
    282.0713    
    248.7241    
    259.1187    
    297.3618    
    351.5957    
    272.4105    
    247.0199    
    279.2821    
    307.5921    
    347.8807    
    258.7688    
    273.1347    
    229.8675    
    252.1718    
    286.4206    
    243.1414    
    325.1390    
    283.7940    
    339.9811    
    310.5586    
    255.3193    
    285.5891    
    262.1762    
    298.4202    
    336.6946    
    203.9464    
    291.8017    
    264.4106    
    280.7610    
    317.0201    
    291.5974    
    313.9284    
    360.1842    
    346.6794    
    321.2337    
    285.8639    
    292.2721    
    312.6093    
    235.5268    
    303.5477    
    307.9672    
    314.3773    
    273.0537    
    255.6120    
    252.0765    
    153.3458    
    266.8640    
    301.1016    
    285.6354    
    303.9717    
    326.2990    
    267.0710    
    420.8683    
    333.5862    
    316.1111    
    288.7007    
    311.0143    
    279.6321    
    248.2799    
    232.8328    
    376.4836    
    323.1389    
    178.6089    
    254.4274    
    292.6187    
    301.0030    
    319.3405    
    202.5805    
    204.9965    
    288.8189    
    309.1347    
    305.5879    
    198.7946    
    296.5109    
    257.1959    
    295.3815    
    289.8468    
    300.2189    
    358.3595    
    307.0422    
    214.1322    
    202.6643    
    282.4852    
    148.0580    
    176.2057    
    222.2215    
    183.0020    
    310.4659    
    285.0493    
    168.4358    
    180.7449    
    232.7164    
    177.6360    
    307.0565    
    373.1617    
    250.2945    
    264.6139    
    265.0377    
    311.1637    
    285.7492    
    270.2799    
    320.3888    
    271.1249    
    329.1891    
    242.1892    
    260.4767    
    262.8812    
    285.1502    
    317.3741    
    240.3271    
    324.1794    
    259.0283    
    313.0896    
    301.5768    
    286.1035    
    181.3943    
    223.4258    
    331.0877    
    261.9580    
    314.0264    
    189.4252    
    316.8512    
    321.2404    
    391.3292    
    258.5023    
    205.3742    
    273.2292    
    265.7040    
    214.5478    
    230.8200    
    203.4846    
    253.4666    
    313.4613    
    250.3271    
    375.9672    
    261.0738    
    263.4713    
    281.7514    
    317.9279    
    256.7680    
    400.3522    
    235.7721    
    256.0193    
    169.2421    
    237.0039    
    290.9959    
    293.3922    
    262.0386    
    191.0871    
    185.5552    
    265.2477    
    335.1875    
    317.6998    
    268.4569    
    320.5055    
    358.7016    
    178.5134    
    234.3830    
    288.3588    
    231.2303    
    247.4982    
    249.8851    
    188.8664    
    222.9410    
    292.7780    
    295.1664    
    319.4116    
    175.0556    
    213.0753    
    298.7707    
    263.4436    
    285.6754    
    129.6183    
    403.8136    
    372.3578    
    340.9298    
    277.7627    
    220.6602    
    274.5980    
    261.1089    
    273.4125    
    311.5364    
    274.2130    
    260.7284    
    187.8218    
    134.8299    
    240.1147    
    204.8532    
    242.8946    
    310.7566    
    299.2397    
    269.8673    
    220.7086    
    318.3099    
    280.9812    
    352.8917    
    257.9690    
    192.9931    
    290.5041    
    203.6809    
    257.5693    
    166.8780    
    214.7657    
    195.3654    
    354.4599    
    279.3781    
    309.5458    
    258.3500    
    284.5259    
    318.6693    
    200.1010    
    164.8864    
    303.9634    
    324.2132    
    207.6073    
    249.5973    
    200.4744    
    177.1238    
    272.5768    
    217.4816    
    315.0357    
    337.2756    
    163.2588    
    274.5283    
    179.8559    
    215.8632    
    218.2324    
    299.8948    
    240.7946    
    187.7345    
    201.9715    
    291.5264    
    171.1003    
    201.1553    
    221.3364    
    370.5450    
    212.2104    
    307.7427    
    187.2649    
    270.8206    
    304.9279    
    384.7958    
    178.9184    
    177.3260    
    252.9247    
    166.2354    
    340.9956    
    281.8306    
    353.6856    
    290.5331    
    354.4527    
    321.0656    
    222.3248    
    191.0495    
    221.1125    
    282.9115    
    180.3328    
    198.5125    
    262.2514    
    236.8778    
    360.2593    
    358.6548    
    145.0800    
    272.0826    
    381.6638    
    376.0795    
    300.9853    
    190.4521    
    198.7428    
    218.9040    
    233.1383    
    209.7665    
    160.7239    
    178.8862    
    373.5233    
    268.7029    
    386.2084    
    299.1953    
    333.3103    
    290.0336    
    262.6606    
    320.5443    
    273.3203    
    311.3749    
    333.5821    
    236.8137    
    401.9052    
    352.5821    
    348.9835    
    218.5243    
    379.5399    
    286.6083    
    328.6425    
    281.4081    
    277.8170    
    290.0833    
    215.2046    
    338.4463    
    269.4017    
    402.7844    
    367.3711    
    326.0406    
    288.7272    
    308.9268    
    253.8056    
    279.9317    
    191.2416    
    296.5316    
    378.2895    
    360.7783    
    327.3943    
    305.9431    
    193.4628    
    272.9843    
    350.7103    
    271.7436    
    159.3805    
    274.4601    
    328.3651    
    296.9981    
    251.7998    
    297.7339    
    201.0995    
    205.4212    
    207.7657    
    328.9512    
    301.5503    
    359.4641    
    306.2492    
    245.2059    
    209.9645    
    281.5807    
    262.1406    
    423.2810    
    298.5311    
    306.8272    
    315.1227    
    163.1292    
    343.6275    
    357.8883    
    340.3854    
    297.1187    
    228.1822    
    285.9537    
    280.3724    
    227.2957    
    292.9854    
    364.7638    
    317.5001    
    266.3409    
    334.0927    
    292.8164    
    194.2484    
    311.3761    
    420.9601    
    215.0951    
    276.7924    
    223.7236    
    364.7685    
    299.6670    
    270.3111    
    262.7528    
    388.0586    
    273.3725    
    265.8108    
    335.5293    
    298.2185    
    318.3993    
    298.9355    
    412.4350    
    341.2897    
    307.9379    
    338.0367    
    362.2071    
    382.4231    
    220.2932    
    341.4494    
    264.5230    
    375.9043    
    292.9573    
    237.8933    
    347.1995    
    323.7550    
    244.8949    
    284.8333    
    219.9017    
    242.0063    
    244.3369    
    252.6029    
    233.1810    
    284.9808    
    297.2180    
    248.0862    
    193.1019    
    296.3001    
    294.6723    
    267.3071    
    247.8744    
    355.2033    
    383.3468    
    278.6137    
    292.8263    
    364.5517    
    319.2881    
    274.0819    
    193.3816    
    338.1835    
    356.3875    
    311.1342    
    351.1363    
    258.3808    
    274.5611    
    241.2813    
    257.4528    
    315.2177    
    299.7185    
    280.2694    
    215.3605    
    275.0291    
    289.2343    
    374.8293    
    321.6253    
    236.8641    
    209.5499    
    290.9762    
    384.5077    
    396.7697    
    311.8249    
    225.1190    
    174.1310    
    219.8850    
    414.3986    
    323.4635    
    365.4527    
    365.7990    
    276.9781    
    295.1389    
    236.1405    
    270.0997    
    258.5775    
    334.1590    
    209.8643    
    231.9371    
    220.4283    
    216.8218    
    173.7427    
    312.4506    
    421.9112    
    311.1575    
    246.2043    
    195.1937    
    300.3070    
    405.7481    
    302.9711    
    329.0658    
    283.8639    
    220.9429    
    294.4460    
    237.4321    
    384.3213    
    293.4899    
    383.0197    
    278.3422    
    247.0466    
    326.5399    
    180.5944    
    267.8388    
    311.7164    
    325.9237    
    403.6138    
    397.9988    
    257.6770    
    360.9776    
    216.8666    
    203.3876    
    229.3964    
    348.4568    
    420.2329    
    372.9315    
    335.6006    
    318.1105    
    397.7587    
    263.3834    
    269.6518    
    228.4923    
    177.5215    
    280.5551    
    360.1081    
    206.1518    
    279.5885    
    396.8260    
    240.7283    
    387.5750    
    387.9114    
    320.8521    
    408.4330    
    242.4096    
    258.5538    
    191.7550    
    231.5657    
    336.7331    
    344.9924    
    337.4033    
    383.3318    
    345.9969    
    326.5211    
    372.4352    
    283.6525    
    208.9152    
    377.4020    
    435.3036    
    380.0554    
    358.5771    
    279.7183    
    319.6251    
    229.0120    
    363.8743    
    362.2243    
    368.5027    
    275.7842    
    210.9380    
    399.2540    
    379.7472    
    425.7215    
    451.8817    
    388.6769    
    295.9053    
    361.5798    
    399.5869    
    407.8570    
    338.7951    
    329.2225    
    392.9742    
    187.6268    
    357.9445    
     83.9585    
    309.1009    
    394.6238    
    353.3202    
    335.8220    
    342.0934    
    316.6851    
    251.7698    
    370.8196    
    293.9293    
    331.8559    
    235.3087    
    285.0280    
    346.7022    
    204.7232    
    270.2008    
    238.9247    
    304.4653    
    211.9513    
    291.2757    
    321.2756    
    228.7171    
    252.7340    
    437.2370    
    358.2229    
    303.1224    
    368.7841    
    436.5577    
    375.3803    
    347.9679    
    324.5370    
    368.4279    
    232.3022    
    378.9895    
    306.0518    
    336.0583    
    383.9292    
    398.1315    
    366.7399    
    287.9003    
    286.2497    
    373.6578    
    360.1098    
    382.2322    
    244.0876    
    309.6164    
    309.9396    
    312.2409    
    348.1882    
    291.1345    
    192.7677    
    309.5777    
    410.9171    
    231.2039    
    294.7257    
    279.2365    
    311.1882    
    303.5984    
    522.1364    
    322.0400    
    336.2149    
    219.9680    
    303.2271    
    181.1859    
    282.1278    
    428.9845    
    322.3096    
    380.0460    
    372.4416    
    412.4082    
    353.2746    
    306.1097    
    395.5222    
    425.5899    
    299.1590    
    293.5500    
    430.5169    
    310.0029    
    397.4370    
    417.5872    
    398.0742    
    313.2527    
    337.3100    
    317.8448    
    351.8007    
    421.4781    
    401.9631    
    382.4621    
    406.5642    
    400.9350    
    219.3621    
    296.6624    
    479.2911    
    384.3649    
    460.0588    
    343.4145    
    522.3146    
    409.4154    
    403.7850    
    378.3369    
    181.1449    
    179.4935    
    355.5221    
    209.6725    
    308.6772    
    316.9016    
    291.5236    
    317.5316    
    410.9052    
    446.9266    
    480.9990    
    429.6963    
    265.7639    
    380.7686    
    329.6219    
    405.1743    
    377.7484    
    281.1546    
    342.7452    
    273.8818    
    335.4577    
    248.8518    
    342.0171    
    356.1837    
    441.7076    
    325.1568    
    341.2918    
    258.6219    
    231.3193    
    286.8842    
    299.0477    
    293.4322    
    404.5448    
    390.9886    
    397.2424    
    429.2697    
    473.2424    
    386.2904    
    386.6014    
    390.8723    
    286.3596    
    113.3477    
    277.1070    
    352.5200    
    420.1697    
    436.3447    
    524.0451    
    536.2893    
    395.6488    
    489.2000    
    459.7211    
    434.2358    
    480.1951    
    379.3683    
    478.8248    
    487.0796    
    521.1748    
    523.4699    
    462.1934    
    262.6337    
    387.4710    
    306.6841    
    382.1458    
    376.5158    
    412.4776    
    343.4935    
    371.4997    
    542.4628    
    572.6279    
    479.4769    
    549.3546    
    458.2571    
    393.1429    
    423.1702    
    530.6913    
    536.9629    
    587.0322    
    647.1512    
    492.1663    
    391.3268    
    510.6601    
    534.8216    
    497.3635    
    436.1439    
    519.8321    
    518.1518    
    470.7862    
    530.6901    
    511.1163    
    451.8604    
    529.6187    
    569.7097    
    589.9252    
    566.3370    
    449.4157    
    423.9435    
    521.5038    
    434.4643    
    611.6757    
    693.7955    
    630.2258    
    608.6003    
    830.8412    
   1070.7306    
   1399.9829    
   1347.2733    
    950.6226    
    910.6853    
    997.5680    
    991.8245    
   1111.2631    
   1059.0125    
    853.9376    
    704.0322    
    756.3268    
    730.6236    
    857.1512    
   1050.7285    
   1075.2675    
   1219.3387    
   1239.9379    
   1350.0703    
   1413.5867    
   1391.4419    
   1361.1608    
   1500.3263    
   1482.2142    
   1502.9722    
   1319.5962    
   1307.6877    
   1178.0336    
   1067.0582    
    966.5194    
    818.1321    
    953.0238    
    768.6514    
    971.7472    
    955.9386    
    825.6464    
    759.8406    
    664.2230    
    860.6474    
    776.7514    
    821.1263    
    855.5245    
    829.7476    
    699.9564    
    788.2588    
    947.1514    
    828.9335    
    701.1498    
    801.4698    
    871.9644    
    740.0159    
    993.2393    
    997.5653    
   1149.3448    
   1153.6919    
   1289.9163    
   1394.0504    
   1262.0625    
   1325.3833    
   1309.4038    
   1242.6469    
   1163.8695    
   1071.1423    
   1085.5780    
   1071.7352    
   1124.5781    
   1040.0314    
   1064.5455    
   1178.0984    
   1048.9917    
   1215.1742    
   1231.6986    
   1248.2308    
   1435.8152    
   1338.2638    
   1168.0126    
   1089.4231    
   1109.9285    
   1146.6300    
   1021.6883    
   1165.4391    
   1212.3386    
   1186.2816    
   1178.4738    
   1045.3451    
   1043.6240    
   1268.6027    
   1179.6505    
   1196.1534    
   1228.8866    
   1154.2100    
   1245.7068    
   1376.1450    
   1341.8207    
   1431.7913    
   1452.5004    
   1428.2955    
   1410.2275    
   1437.0463    
   1467.9677    
   1689.6362    
   1809.4257    
   1618.3208    
   1801.7593    
   1824.7563    
   1949.1705    
   1986.7913    
   2314.4453    
   2444.9011    
   2491.5066    
   2843.3257    
   3147.2905    
   3454.0476    
   4295.2646    
   5950.2578    
   9487.2432    
  16962.0488    
  24281.1816    
  17715.6387    
  10485.3135    
   8331.9756    
   8463.0283    
  10617.6279    
  14195.1006    
  22317.4688    
  32087.0859    
  26981.9336    
  19232.0430    
  18268.4707    
  23654.8477    
  38064.7383    
  61304.9102    
  59720.4570    
  36155.9023    
  22461.9258    
  18682.1289    
  21888.5332    
  22325.0508    
  15564.5449    
  10984.6689    
   9773.6719    
  10323.4531    
  16230.0254    
  24256.3320    
  16572.6172    
   8553.2227    
   4951.4448    
   3659.9009    
   2788.4111    
   2322.4302    
   2043.1488    
   1896.2539    
   1948.2946    
   1793.5662    
   1984.1055    
   1759.1011    
   1843.9534    
   1999.4852    
   2084.9487    
   1834.4891    
   1793.5123    
   1699.0861    
   1748.7540    
   1786.1272    
   1769.9261    
   1941.6683    
   1960.5975    
   1944.3102    
   2058.7073    
   2198.5273    
   2612.5071    
   3100.2275    
   3608.2434    
   4377.1240    
   4934.5522    
   5414.0034    
   5928.4351    
   6567.2983    
   7540.4102    
   7071.2588    
   5761.9575    
   4517.8208    
   3787.9077    
   3262.7009    
   2962.7234    
   2845.7817    
   2754.7043    
   3034.1096    
   2755.2734    
   2531.4041    
   2353.0249    
   2298.8481    
   2044.7737    
   2099.1042    
   2282.9612    
   2668.2664    
   2802.1333    
   2687.8853    
   2567.6982    
   2610.2021    
   2623.1619    
   2895.0354    
   3473.3975    
   3601.8264    
   3402.5061    
   3327.1667    
   3392.2615    
   3418.4998    
   3172.9861    
   2761.2273    
   2480.5007    
   2077.1665    
   1851.6440    
   1631.7383    
   1454.0590    
   1289.4999    
   1275.5747    
   1389.6844    
   1284.2576    
   1428.9559    
   1353.9009    
   1562.2875    
   1505.3131    
   1568.9895    
   1516.0898    
   1571.5995    
   1633.3516    
   1439.3634    
   1502.9138    
   1419.5409    
   1403.5234    
   1434.3721    
   1555.1465    
   1424.7401    
   1578.2224    
   1386.6027    
   1421.5050    
   1242.9443    
   1440.4108    
   1471.2881    
   1645.4829    
   1666.2842    
   1658.3555    
   1856.2261    
   1879.2205    
   1757.8435    
   1906.6475    
   1653.5941    
   1490.1354    
   1449.6030    
   1407.0885    
   1127.4919    
   1328.3119    
   1219.0538    
   1063.7657    
   1164.9812    
    943.6003    
   1044.4502    
   1089.0765    
   1063.1405    
   1061.4054    
    979.1513    
   1013.6233    
    903.3995    
    925.7458    
   1082.9575    
   1291.5995    
   1239.1556    
   1021.3300    
   1055.8475    
   1027.9230    
    851.5081    
    899.8787    
   1028.7552    
    886.4002    
    882.6677    
    828.8677    
    927.3481    
    891.5186    
    939.9461    
    862.0098    
    858.2847    
    888.6154    
   1033.5402    
    919.2495    
    765.3884    
   1032.3533    
    777.9259    
    638.6407    
    734.5527    
    738.8201    
    633.4971    
    681.5492    
    753.6168    
    755.8893    
    644.5492    
    549.4510    
    786.6792    
    619.5209    
    603.8911    
    749.5578    
    779.7843    
    501.5352    
    579.1668    
    674.8950    
    744.9442    
    713.3033    
    479.1444    
    717.8410    
    710.1392    
    696.4645    
    629.0576    
    732.8994    
    759.1158    
    550.4286    
    626.1766    
    582.7347    
    634.6780    
    746.5165    
    726.8400    
    560.0098    
    627.8195    
    642.0122    
    694.0470    
    430.3920    
    422.7609    
    623.2208    
    583.7576    
    578.0756    
    606.1544    
    534.9732    
    422.4205    
    585.1223    
    515.9694    
    500.3933    
    330.7689    
    319.2208    
    530.9331    
    231.2406    
    227.5832    
    472.3318    
    470.6248    
    526.3490    
    455.3451    
    453.6366    
    351.2282    
    493.7562    
    271.0382    
    448.7924    
    466.8627    
    354.5606    
    327.2400    
    246.8351    
    292.3392    
    375.3671    
    361.8311    
    419.3405    
    401.8367    
    313.3808    
    278.2250    
    160.6838    
    345.7144    
    322.3400    
    116.4435    
    240.2611    
    411.9016    
    311.6067    
    217.5046    
    475.9660    
    357.7307    
    302.8427    
    208.7681    
    317.1658    
    272.1761    
    440.0144    
    369.2108    
    357.6500    
    454.6606    
    153.7871    
    220.7422    
    398.1797    
    315.6531    
    343.4980    
    182.5762    
    229.9413    
    304.9186    
    504.5680    
    453.3974    
    370.7379    
    473.7112    
    310.1998    
    332.1270    
    514.1024    
    557.9698    
    417.7374    
    260.4006    
    355.1439    
    361.3241    
    227.8091    
    381.5780    
    291.2355    
    295.4386    
    429.7562    
    433.9755    
    329.7049    
    298.4772    
    422.9276    
    350.2055    
    484.7395    
    411.8809    
    356.9183    
    406.4948    
    424.5314    
    371.5209    
    510.0919    
    547.9971    
    516.5646    
    396.2564    
    402.4416    
    371.1477    
    422.7160    
    409.1632    
    385.7534    
    386.0198    
    459.3425    
    345.1559    
    369.0713    
    327.9652    
    245.6406    
    356.0731    
    397.7455    
    358.5758    
    315.5156    
    441.9767    
    668.2182    
    420.7852    
    642.9031    
    649.1300    
    415.6584    
    408.0277    
    435.9325    
    376.9977    
    381.2068    
    581.2239    
    524.0101    
    405.6736    
    390.1563    
    621.9798    
    357.1756    
    517.4152    
    561.2634    
    636.9411    
    597.4929    
    613.6371    
    741.2115    
    538.8042    
    642.2375    
    571.0434    
    490.1112    
    535.9009    
    633.3607    
    411.8777    
    560.4689    
    406.4850    
    541.1802    
    581.0858    
    541.7075    
    506.3343    
    520.4524    
    485.1023    
    461.6445    
    594.5704    
    580.9486    
    563.3673    
    539.8542    
    587.6866    
    703.1939    
    845.0782    
    532.9828    
    456.1071    
    722.1643    
    738.3629    
    545.9168    
    417.6684    
    469.2758    
    584.3650    
    705.8204    
    626.5624    
    662.5846    
    637.0159    
    684.9831    
    762.9091    
    552.5024    
    691.7355    
    430.4197    
    626.6727    
    656.7311    
    567.6849    
    830.6016    
    753.0435    
    685.6116    
    749.5800    
    614.6078    
    676.4530    
    796.2324    
    758.6010    
    998.9152    
    804.9979    
    877.1927    
    825.4869    
    817.7586    
    814.0256    
    978.4025    
    940.5630    
   1216.5154    
   1148.1439    
    969.4133    
    979.7056    
   1046.2426    
   1106.8679    
   1179.7104    
   1380.3873    
   1069.4036    
   1291.6832    
   1464.5258    
   1265.8901    
   1375.5981    
   1491.7788    
   1549.1300    
   1496.3713    
   1494.5957    
   1890.4067    
   1740.4991    
   2043.8365    
   1961.3533    
   2264.6245    
   2413.2434    
   2634.1235    
   2668.1277    
   2952.3667    
   2937.7288    
   3130.0020    
   3006.3926    
   2855.6438    
   3034.6335    
   3131.0376    
   3371.7998    
   3311.7698    
   3473.7637    
   3558.4363    
   3543.5256    
   3728.4229    
   3672.0964    
   3470.7324    
   3629.1465    
   3579.4951    
   3590.5991    
   3534.5081    
   3113.0071    
   3160.3401    
   3207.7397    
   3240.1782    
   3291.9900    
   2975.6011    
   2903.5366    
   2546.6279    
   2538.4792    
   2475.7480    
   2459.2285    
   2413.3933    
   2392.7222    
   2313.5640    
   2068.4177    
   1971.4285    
   1862.3671    
   1982.2762    
   1760.0768    
   1995.1923    
   2055.4565    
   1672.6863    
   1623.8408    
   1570.9818    
   1655.0360    
   1770.0864    
   1716.9976    
   1466.0325    
   1684.7239    
   1619.5034    
   1385.5120    
   1481.3070    
   1329.2390    
   1575.5909    
   1547.2805    
   1756.2268    
   1466.3068    
   1558.2452    
   1903.0359    
   1837.3901    
   1922.1063    
   1866.7172    
   1760.0712    
   1782.9138    
   1818.1031    
   1875.9789    
   2130.5391    
   2161.9380    
   2330.8892    
   2452.4609    
   2442.2437    
   2543.2031    
   2981.2649    
   3171.5430    
   3214.6479    
   3781.3896    
   3939.0220    
   3910.8071    
   4042.6680    
   4550.0435    
   4563.6895    
   5625.4058    
   6134.2202    
   7105.5439    
   7937.6216    
   8180.8232    
   8353.2031    
   7731.5449    
   7387.4595    
   7295.5176    
   7720.0342    
   8597.9580    
   9574.7617    
  10365.1758    
  10103.4717    
   8917.9307    
   7635.7842    
   6147.3945    
   5278.9800    
   4716.1826    
   4452.8965    
   4242.4829    
   4039.9788    
   3998.5132    
   4110.8711    
   4612.4858    
   5112.6807    
   5821.5220    
   6552.8618    
   6557.8545    
   5959.3091    
   5780.8438    
   6176.9561    
   7069.8237    
   8588.6787    
  10053.4922    
  11970.7900    
  11845.8594    
  10125.3711    
   7936.6191    
   6418.7720    
   4908.3833    
   4223.4897    
   3535.0784    
   3296.0117    
   3056.5176    
   2561.3665    
   2419.0215    
   2144.2075    
   2080.1870    
   1834.8607    
   1804.2855    
   1728.6188    
   1396.4634    
   1692.2509    
   1645.4512    
   1494.7643    
   1028.1833    
   1264.0675    
   1290.6006    
   1034.9584    
   1321.4602    
   1129.9344    
   1311.8408    
   1259.5114    
   1300.2031    
   1558.3885    
   1471.0841    
   1728.5466    
   1841.7001    
   2008.9207    
   2176.9841    
   2135.7222    
   2296.0869    
   2665.2205    
   2558.1580    
   2464.0088    
   2118.3123    
   1628.7513    
   1295.6259    
   1334.3307    
   1046.2588    
   1018.4158    
   1197.6683    
   1089.1957    
   1131.6847    
   1033.4618    
    963.5494    
    919.7765    
   1000.1155    
   1426.0547    
   1363.4205    
   1317.0913    
   1638.6388    
   1817.1372    
   1961.4999    
   2110.6360    
   2318.7781    
   2312.7712    
   2411.1631    
   2313.2708    
   2217.7461    
   2439.1057    
   2257.7722    
   1976.1292    
   2241.6206    
   1764.7146    
   1654.3976    
   1526.1166    
   1622.2085    
   1445.2634    
   1502.4369    
   1285.6781    
   1259.6556    
   1300.3279    
   1127.1045    
   1191.7955    
   1198.0935    
   1047.4706    
   1251.0497    
   1231.1151    
   1186.9946    
   1417.7986    
   1556.3334    
   1446.7198    
   1438.8459    
   1230.5889    
   1524.7399    
   1704.6265    
   1877.2589    
   2139.8342    
   2456.7942    
   2129.9670    
   2382.0059    
   1872.3275    
   2025.1483    
   1864.5950    
   1737.5781    
   1707.1086    
   1505.3302    
   1668.7375    
   1200.0203    
   1463.3768    
   1331.8119    
    911.7318    
    649.2098    
   1255.7354    
   1312.5690    
   1072.9843    
   1015.0485    
    869.2787    
   1192.4218    
   1348.2101    
    963.9588    
    984.2259    
    854.5519    
    715.4461    
    781.3126    
    805.4562    
    857.5334    
    756.1875    
    284.4275    
    574.1961    
    934.4203    
    787.0235    
    529.4704    
    598.9286    
    618.9774    
    370.5833    
    790.2507    
    683.1590    
    479.6297    
    737.2780    
    297.1937    
    662.3239    
    801.6824    
    885.6754    
    416.0814    
    631.5928    
    296.7097    
    604.3586    
    442.6689    
    391.7314    
    397.8800    
    453.2580    
    629.3546    
    321.9771    
    398.8636    
    614.2472    
    426.9098    
    370.1031    
    270.2513    
    433.5554    
    294.2670    
    570.2066    
    453.9900    
    655.8375    
    482.0795    
    549.4473    
    585.2808    
    662.7655    
    416.0755    
    469.5038    
    576.3704    
    649.8718    
    656.0620    
    745.6334    
   1129.7130    
    542.0180    
    651.0968    
    692.9872    
    586.2430    
    725.2441    
    848.8713    
    503.9999    
    674.3711    
    736.1579    
    579.7983    
    534.5897    
    615.9053    
    631.9919    
    485.9845    
    608.7191    
    654.5212    
    217.6396    
    362.9549    
    231.8218    
    479.5616    
    414.8106    
    316.8132    
    571.1106    
    634.6781    
    439.4070    
    524.4286    
    449.7411    
    621.7917    
    416.7621    
    517.5093    
    377.9163    
    350.6557    
    706.2689    
    571.8174    
    637.3594    
    566.3735    
    679.4670    
    420.9201    
    303.3006    
    297.6631    
    380.3512    
    260.9184    
    143.8679    
    493.2977    
    261.6480    
    671.7403    
    373.9505    
    119.7242    
    399.9901    
    151.4252    
    200.4984    
    345.7038    
    289.0620    
    395.3069    
    608.5659    
    616.7257    
    696.2286    
    439.5579    
    577.8940    
    347.6453    
    169.7135    
    418.8808    
    115.1102    
    399.6967    
    207.8051    
    374.6307    
    304.2182    
    408.5306    
    806.4413    
    558.8204    
    521.5492    
    342.6995    
    116.8621    
    251.0629    
    366.9860    
    483.3166    
    212.6655    
    487.7408    
    117.9132    
    807.1099    
    118.2635    
    118.4387    
    425.9313    
    481.3081    
    383.1574    
    119.1394    
    119.3145    
    492.1287    
    376.2655    
    264.7168    
    120.0152    
    120.1904    
    288.9431    
    218.7245    
    430.7935    
    413.3326    
    456.8665    
    656.5825    
    744.0995    
    414.2968    
    304.5919    
    361.7218    
    440.5943    
    454.6144    
    184.2514    
    122.6426    
    270.7726    
    453.6082    
    189.1187    
    123.3432    
    123.5184    
    630.2547    
    123.8687    
    472.7759    
    124.2190    
    764.0844    
    686.9197    
    326.3261    
    132.9782    
    440.7468    
    638.3546    
    504.2565    
    421.7938    
    538.2735    
    183.1979    
    230.3347    
    365.7711    
    126.4958    
    184.1577    
    126.8460    
    478.8259    
    127.1963    
    377.0275    
    665.2359    
    281.4147    
    127.8968    
    462.5411    
    305.6400    
    628.8181    
    128.5973    
    265.2319    
    128.9475    
    826.2454    
    733.0678    
    701.5643    
    205.8117    
    161.1443    
    309.9938    
    597.5895    
    140.4085    
    740.6960    
     60.1920    
     57.2379    
     57.2465    
     54.2941    
     53.4957    
     54.0419    
     52.7054    
     51.1004    
     51.6469    
     48.6982    
     47.9008    
     46.0285    
     46.0371    
     42.5558    
     42.5644    
     43.1095    
     40.9715    
     40.9374    
     40.9224    
     40.9073    
     40.8923    
     40.8772    
     40.8622    
     40.8471    
     40.8320    
     40.8170    
     40.8019    
     40.7869    
     40.7718    
     40.7567    
     40.7417    
     40.7266    
     40.7116    
     40.6965    
     40.6815    
     40.6664    
     40.6513    
     40.6363    
     40.6212    
     40.6062    
     40.5911    
     40.5761    
     40.5610    
     40.5459    
     40.5309    
     40.5158    
     40.5008    
     40.4857    
     40.4707    
     40.4556    
     40.4405    
     40.4255    
     40.4104    
     40.3954    
     40.3803    
     40.3653    
     40.3502    
     40.3352    
     40.3201    
     40.3050    
     40.2900    
     40.2749    
     40.2599    
     40.2448    
     40.2298    
     40.2147    
     40.1996    
     40.1846    
     40.1695    
     40.1545    
     40.1394    
     40.1244    
     40.1093    
     40.0943    
     40.0792    
     40.0641    
     40.0491    
     40.0340    
     40.0190    
     40.0039    
     39.9889    
     39.9738    
     39.9588    
     39.9437    
     39.9286    
     39.9136    
     39.8985    
     39.8835    
     39.8684    
     39.8534    
     39.8383    
     39.8233    
     39.8082    
     39.7932    
     39.7781    
     39.7631    
     39.7480    
     39.7329    
     39.7179    
     39.7028    
     39.6878    
     39.6727    
     39.6577    
     39.6426    
     39.6276    
     39.6125    
     39.5975    
     39.5824    
     39.5673    
     39.5523    
     39.5372    
     39.5222    
     39.5071    
     39.4921    
     39.4770    
     39.4620    
     39.4469    
     39.4319    
     39.4168    
     39.4018    
     39.3867    
     39.3717    
     39.3566    
     39.3415    
     39.3265    
     39.3114    
     39.2964    
     39.2813    
     39.2663    
     39.2512    
     39.2362    
     39.2211    
     39.2061    
     39.1910    
     39.1760    
     39.1609    
     39.1459    
     39.1308    
     39.1158    
     39.1007    
     39.0857    
     39.0706    
     39.0555    
     39.0405    
     39.0254    
     39.0104    
     38.9953    
     38.9803    
     38.9652    
     38.9502    
     38.9351    
     38.9201    
     39.1451    
     38.8900    
     38.8749    
     38.8599    
     38.8448    
     38.8298    
     39.7289    
     38.7997    
     38.7846    
     38.7696    
     38.7545    
     39.5007    
     38.9723    
     38.7094    
     38.6943    
     39.2642    
     38.6642    
     38.6492    
     38.6341    
     38.6191    
     38.6040    
     40.9206    
     40.3920    
     38.5589    
     38.5438    
     38.5288    
     39.0829    
     39.3589    
     39.3668    
     39.6428    
     38.4535    
     38.4385    
     38.4234    
     39.1379    
     38.3933    
     38.3783    
     39.6978    
     38.3482    
     39.7134    
     39.1849    
     39.7291    
     39.7369    
     40.2811    
     40.0204    
     42.1738    
     38.9637    
     40.0438    
     40.5880    
     39.7915    
     40.0671    
     39.8070    
     38.7426    
     39.5544    
     39.0259    
     40.9106    
     40.3823    
     41.4626    
     40.1293    
     42.5513    
     42.5591    
     42.0302    
     41.2331    
     41.5091    
     44.2000    
     41.5246    
     45.2889    
     42.8812    
     40.7430    
     43.1650    
     43.7095    
     43.7172    
     42.9198    
     41.5863    
     43.7403    
     41.8702    
     42.9505    
     43.7633    
     42.6979    
     42.9736    
     42.4446    
     41.9163    
     42.7286    
     43.0042    
     41.9393    
     43.5563    
     42.7592    
     44.6449    
     43.0425    
     44.3921    
     41.7166    
     43.8705    
     43.6097    
     45.4961    
     44.6983    
     43.3642    
     43.6402    
     43.1111    
     44.9972    
     45.0048    
     45.5493    
     45.2885    
     44.2223    
     44.7667    
     46.1167    
     45.3188    
     45.8637    
     45.6024    
     45.8788    
     45.3491    
     46.6992    
     46.7068    
     44.2980    
     45.3793    
     45.9242    
     45.1259    
     45.6704    
     44.0676    
     42.4654    
     45.4245    
     45.7005    
     46.7822    
     44.1053    
     48.1395    
     44.3884    
     45.7381    
     46.0144    
     44.9477    
     43.3452    
     44.1578    
     46.0444    
     44.7096    
     45.7906    
     43.6510    
     43.1221    
     44.2027    
     43.1370    
     45.2910    
     43.1520    
     43.9642    
     45.5818    
     45.0524    
     44.2549    
     45.0673    
     43.7330    
     45.8875    
     45.0896    
     44.8289    
     45.3729    
     44.3069    
     44.8512    
     44.8586    
     43.7924    
     44.8734    
     43.2709    
     44.8882    
     43.8221    
     45.9765    
     43.3005    
     43.8442    
     45.4618    
     44.9326    
     45.4765    
     44.1421    
     44.9547    
     43.6201    
     43.3595    
     44.7081    
     42.8376    
     42.8449    
     44.1937    
     43.9326    
     44.4767    
     43.4110    
     42.6137    
     43.6936    
     43.7010    
     43.1716    
     43.7156    
     42.6503    
     43.7303    
     43.7376    
     43.2082    
     44.2889    
     44.0279    
     42.4256    
     42.7015    
     42.4402    
     44.0570    
     43.5280    
     44.6084    
     43.2739    
     42.7452    
     43.2884    
     44.9056    
     44.1080    
     44.9201    
     42.7816    
     43.8614    
     43.6007    
     43.6079    
     42.5420    
     40.9402    
     43.3610    
     42.2954    
     43.6441    
     43.3827    
     42.3171    
     43.3972    
     43.6730    
     42.8757    
     43.1508    
     41.8168    
     43.1653    
     42.3676    
     42.6431    
     42.6503    
     41.3164    
     42.6647    
     41.8672    
     43.2156    
     42.4180    
     42.6934    
     42.9692    
     42.9764    
     41.9102    
     42.9907    
     42.7293    
     43.0050    
     42.7436    
     42.2143    
     43.0265    
     43.0337    
     44.1134    
     44.3889    
     42.7865    
     41.4525    
     42.2643    
     42.8079    
     44.1562    
     42.2856    
     44.4388    
     40.1552    
     41.2345    
     41.7780    
     42.0530    
     42.3283    
     41.5308    
     42.0743    
     39.6687    
     40.4798    
     41.5592    
     40.7621    
     41.8418    
     42.1168    
     44.2698    
     43.2043    
     40.7975    
     41.0727    
     40.2757    
     41.3549    
     41.8984    
     41.1009    
     41.1079    
     39.7747    
     41.3902    
     41.3972    
     43.2819    
     40.3391    
     41.6862    
     42.4979    
     41.4324    
     39.5626    
     40.1058    
     39.0409    
     39.8521    
     43.0765    
     41.4745    
     40.1409    
     38.8079    
     39.8871    
     41.5025    
     40.9732    
     40.9802    
     39.9151    
     39.3859    
     38.5889    
     39.6676    
     40.7470    
     39.1458    
     40.2247    
     39.6955    
     41.0430    
     41.3181    
     39.4487    
     39.7233    
     38.1225    
     39.7372    
     38.1364    
     39.7511    
     39.7581    
     38.6932    
     38.4325    
     38.7071    
     38.4463    
     39.2569    
     38.9958    
     38.1988    
     39.2777    
     40.6249    
     39.0235    
     36.8875    
     38.2334    
     36.6331    
     37.4437    
     39.3260    
     36.1181    
     38.2678    
     37.7391    
     38.5499    
     39.8962    
     39.0993    
     38.8382    
     36.4344    
     37.7804    
     38.8588    
     38.5980    
     37.5331    
     37.0044    
     38.0826    
     37.0181    
     37.0250    
     39.1748    
     38.1100    
     37.5810    
     36.2485    
     37.8626    
     37.0660    
     37.0728    
     38.6869    
     37.0865    
     39.2362    
     37.3677    
     36.5712    
     35.7745    
     36.0492    
     36.3235    
     37.4017    
     36.3371    
     35.5408    
     34.4768    
     36.0899    
     35.2933    
     36.9067    
     36.3778    
     34.2431    
     37.1953    
     37.7375    
     35.6018    
     37.2156    
     35.8831    
     35.3543    
     37.5034    
     36.7069    
     36.1780    
     35.6491    
     35.3881    
     35.3948    
     35.9371    
     36.4792    
     33.3544    
     34.3511    
     35.6963    
     35.1678    
     35.7098    
     34.9132    
     33.5817    
     33.2492    
     34.9333    
     34.4049    
     33.8763    
     34.4183    
     33.6220    
     35.2349    
     34.7062    
     34.1774    
     35.5225    
     33.6555    
     34.4652    
     35.8103    
     35.8170    
     35.8237    
     34.4919    
     34.7663    
     33.9699    
     34.5120    
     33.1806    
     32.9486    
     33.4613    
     33.7356    
     34.0099    
     35.6226    
     34.0232    
     33.7622    
     34.0365    
     34.8462    
     34.8529    
     34.3241    
     34.3307    
     34.6050    
     35.6823    
     35.6889    
     33.8219    
     33.2935    
     33.0322    
     33.0388    
     33.8483    
     32.7848    
     33.3266    
     32.6179    
     32.8046    
     33.6137    
     33.0851    
     36.0360    
     33.9012    
     33.1048    
     33.6467    
     34.1886    
     32.5897    
     33.1312    
     32.6029    
     32.4375    
     32.4225    
     32.4075    
     32.3924    
     32.6357    
     32.3624    
     33.1837    
     32.3323    
     32.3173    
     32.3023    
     32.2872    
     32.2722    
     32.4205    
     34.0324    
     33.2361    
     33.2426    
     32.1970    
     32.1820    
     32.9949    
     33.8040    
     32.1369    
     32.1219    
     32.1069    
     32.0918    
     32.0768    
     32.0618    
     32.0468    
     32.0317    
     32.0167    
     32.0017    
     33.8756    
     32.2768    
     32.0161    
     32.0226    
     33.6342    
     33.6407    
     33.6472    
     31.8814    
     31.8664    
     31.8514    
     31.8364    
     31.8213    
     31.8063    
     31.7913    
     31.7763    
     32.9026    
     31.8388    
     31.7312    
     31.7161    
     31.7011    
     31.6861    
     31.6711    
     31.6560    
     31.6410    
     31.6260    
     32.6995    
     31.6361    
     31.5809    
     32.7187    
     31.5508    
     31.5358    
     31.9354    
     31.5058    
     31.6810    
     31.4757    
     31.4607    
     31.4457    
     31.4306    
     31.9803    
     31.4006    
     31.3855    
     31.3705    
     31.4712    
     31.3405    
     31.3254    
     31.3104    
     31.2954    
     31.2804    
     32.3120    
     31.5158    
     31.7897    
     31.2203    
     31.2052    
     31.1902    
     31.1752    
     31.1602    
     31.1451    
     31.1301    
     31.1151    
     31.1001    
     31.3183    
     31.0700    
     31.0550    
     31.0400    
     31.0249    
     31.0099    
     30.9949    
     30.9799    
     31.6365    
     31.1079    
     32.1838    
     30.9198    
     30.9047    
     30.8897    
     31.1395    
     30.8597    
     30.8446    
     33.0307    
     30.8146    
     30.7996    
     30.9099    
     32.2533    
     30.7545    
     30.7395    
     30.7244    
     30.7094    
     30.6944    
     30.6794    
     30.6643    
     30.6493    
     30.6343    
     31.5139    
     31.2528    
     30.5892    
     30.7304    
     31.0041    
     31.0104    
     30.5291    
     30.5141    
     30.4991    
     30.4841    
     30.4690    
     30.4540    
     30.4390    
     30.4240    
     30.4089    
     30.3939    
     30.3789    
     30.3639    
     30.3488    
     30.3338    
     30.3188    
     30.5758    
     30.2888    
     30.8553    
     30.2587    
     30.2437    
     31.1414    
     30.8802    
     30.1986    
     30.1836    
     30.1686    
     30.1536    
     30.1385    
     30.1235    
     30.1085    
     30.3950    
     30.0784    
     30.0634    
     30.1465    
     30.0334    
     30.0184    
     30.0033    
     29.9883    
     29.9733    
     29.9583    
     29.9432    
     29.9282    
     29.9132    
     29.8982    
     29.8832    
     29.8681    
     29.8531    
     29.8381    
     29.8231    
     29.8081    
     29.7930    
     29.7780    
     29.7630    
     29.7480    
     29.7413    
     29.7179    
     29.7029    
     30.0270    
     29.6729    
     29.6578    
     29.6428    
     29.6278    
     29.7903    
     29.7964    
     30.8721    
     31.9476    
     31.4188    
     30.8904    
     29.8270    
     29.5076    
     29.4926    
     30.3801    
     29.4626    
     29.4476    
     29.4325    
     30.6715    
     31.7473    
     30.9514    
     29.6207    
     30.1615    
     30.4349    
     30.9758    
     31.2490    
     29.6511    
     29.2823    
     30.7324    
     29.2523    
     30.2101    
     31.5528    
     29.9549    
     29.9609    
     32.9081    
     29.9731    
     31.0486    
     31.8567    
     29.1893    
     30.7991    
     30.5381    
     31.0789    
     32.6893    
     30.0215    
     31.3641    
     31.9050    
     31.6436    
     31.1151    
     30.5864    
     31.1272    
     30.8655    
     33.0108    
     32.2147    
     30.0818    
     30.6225    
     29.8265    
     30.9016    
     33.8496    
     31.1814    
     31.7219    
     28.7874    
     32.5363    
     31.4725    
     32.0134    
     31.7519    
     31.4905    
     32.5663    
     32.8398    
     31.2414    
     30.9797    
     30.1839    
     29.9225    
     31.5325    
     30.4692    
     31.2773    
     31.5504    
     31.0216    
     31.2952    
     32.1032    
     30.2377    
     30.5110    
     31.8536    
     31.0574    
     31.8656    
     32.1390    
     30.8082    
     32.9533    
     31.8894    
     32.1628    
     32.9712    
     32.4422    
     33.5181    
     32.4540    
     31.3906    
     31.3965    
     31.9370    
     32.7453    
     30.3448    
     30.3507    
     30.0893    
     32.5015    
     31.7051    
     31.9785    
     31.4499    
     31.7229    
     31.9962    
     31.4676    
     30.4040    
     30.4100    
     29.6139    
     31.4913    
     33.3688    
     32.5725    
     32.5784    
     31.2472    
     32.5902    
     30.7245    
     30.7304    
     30.7363    
     31.0096    
     31.0155    
     32.8930    
     32.6314    
     32.9048    
     31.5738    
     31.3119    
     32.3875    
     31.8585    
     31.0625    
     30.8010    
     32.9459    
     31.3472    
     31.8879    
     32.4286    
     32.4345    
     33.5099    
     32.7136    
     32.1846    
     32.9928    
     31.9289    
     31.6676    
     30.6040    
     31.6793    
     31.1504    
     32.7604    
     31.9639    
     31.1679    
     31.9756    
     33.3187    
     32.5222    
     34.1327    
     32.2664    
     32.8071    
     33.3479    
     33.6209    
     32.8246    
     33.0979    
     31.2320    
     30.9704    
     31.5107    
     31.7842    
     32.0571    
     32.0629    
     31.5339    
     33.9469    
     33.1502    
     33.4235    
     33.4293    
     33.1676    
     33.9759    
     33.4466    
     35.0574    
     34.5280    
     35.3363    
     34.5396    
     35.6158    
     34.5512    
     35.3594    
     34.0280    
     34.3010    
     32.4346    
     34.5801    
     34.0511    
     31.6497    
     34.0626    
     32.4635    
     32.4692    
     34.0799    
     33.0157    
     33.5564    
     35.4344    
     34.3701    
     35.4459    
     36.5222    
     36.5280    
     36.2661    
     37.6100    
     36.5452    
     38.9604    
     37.8953    
     36.2948    
     36.8359    
     36.5739    
     36.8473    
     37.6559    
     35.7885    
     36.0615    
     37.1380    
     37.6788    
     38.2200    
     36.8874    
     37.1608    
     39.8438    
     39.0463    
     39.3195    
     39.5934    
     41.2062    
     39.6048    
     40.9497    
     40.9554    
     41.2290    
     39.3595    
     39.0977    
     40.4423    
     42.5914    
     41.7934    
     40.1918    
     40.4651    
     40.7387    
     40.7444    
     41.2859    
     41.5593    
     39.1546    
     42.1066    
     41.8446    
     43.9943    
     42.1236    
     41.8616    
     42.9390    
     43.2124    
     43.4865    
     44.5642    
     42.4256    
     42.1633    
     42.9730    
     43.2464    
     45.6652    
     44.3301    
     43.2634    
     42.7333    
     44.0792    
     44.8890    
     43.8221    
     45.1684    
     43.2973    
     44.1075    
     45.1853    
     44.9228    
     44.6603    
     46.2747    
     44.4035    
     45.2135    
     47.0967    
     46.5655    
     45.4983    
     46.8450    
     44.9735    
     47.3928    
     46.3254    
     44.7222    
     46.0684    
     45.2698    
     45.8117    
     46.6217    
     46.3591    
     46.9012    
     46.3703    
     47.7170    
     49.0643    
     48.5332    
     48.5388    
     49.0811    
     50.1601    
     49.3604    
     50.7082    
     50.7138    
     49.1091    
     48.5779    
     47.5105    
     49.3939    
     50.4733    
     51.8214    
     51.8270    
     50.7585    
     52.6436    
     52.9178    
     51.8493    
     53.1972    
     52.9345    
     53.4773    
     53.2139    
     53.2195    
     55.1059    
     54.5740    
     56.1918    
     55.9286    
     55.6657    
     54.8653    
     54.0647    
     56.2196    
     55.6879    
     55.4243    
     57.8494    
     55.1670    
     55.1725    
     57.0591    
     58.1402    
     59.2212    
     57.6134    
     59.5016    
     57.3559    
     60.5885    
     60.5940    
     59.5237    
     60.3360    
     59.5348    
     62.2305    
     60.8910    
     60.8966    
     60.6327    
     60.1001    
     60.3747    
     60.6492    
     60.1166    
     61.1984    
     59.8586    
     61.7477    
     60.9462    
     62.2967    
     61.2260    
     60.6933    
     60.6988    
     61.5113    
     63.9391    
     63.4065    
     64.2194    
     63.6864    
     63.9611    
     65.0438    
     66.3961    
     65.8625    
     66.1373    
     64.7967    
     64.5326    
     66.1538    
     65.8899    
     65.0876    
     64.8241    
     66.1757    
     67.7978    
     69.6894    
     67.0000    
     65.6591    
     68.0888    
     68.9029    
     68.6391    
     70.5311    
     69.9973    
     71.0813    
     70.0082    
     71.3616    
     72.7157    
     70.5638    
     71.3780    
     71.9228    
     72.1980    
     73.0125    
     73.0179    
     74.3725    
     74.3779    
     74.9232    
     76.0080    
     76.0135    
     76.5589    
     76.5643    
     77.9200    
     78.1952    
     79.5510    
     80.9075    
     79.5618    
     80.9184    
     80.9238    
     81.7401    
     81.4752    
     81.7509    
     82.2970    
     83.9244    
     85.5524    
     85.5579    
     85.5633    
     85.2982    
     85.8443    
     86.9321    
     88.0198    
     86.1314    
     86.9483    
     85.6011    
     89.1242    
     87.5054    
     88.8640    
     90.2232    
     88.8748    
     89.1512    
     90.5099    
     91.8697    
     90.2502    
     89.9851    
     91.3440    
     91.8912    
     91.3548    
     92.9857    
     91.3656    
     92.4546    
     94.8985    
     95.7172    
     95.4518    
     95.9994    
     96.2756    
     96.8234    
     98.4559    
     98.7323    
     98.1951    
     99.2860    
     99.0200    
    101.1960    
    101.4731    
    100.6641    
    101.2120    
    101.2174    
    102.3088    
    103.9433    
    103.4054    
    103.1395    
    103.9593    
    105.0510    
    105.3284    
    106.4200    
    106.4254    
    106.7028    
    107.5236    
    109.4316    
    109.7093    
    112.1624    
    111.6235    
    112.9895    
    114.0830    
    115.4497    
    117.0889    
    116.5498    
    115.7383    
    118.1947    
    118.7447    
    118.4778    
    119.0282    
    120.1235    
    119.0388    
    120.9516    
    120.1394    
    122.8712    
    124.2402    
    122.8819    
    124.7963    
    126.9848    
    128.3554    
    129.1797    
    127.8198    
    128.0982    
    130.0152    
    130.5669    
    130.5722    
    130.0311    
    131.4022    
    130.8610    
    132.7794    
    133.6045    
    134.7032    
    133.6151    
    134.4407    
    136.0867    
    138.0070    
    137.7386    
    140.2072    
    140.7598    
    142.1345    
    142.6876    
    143.7885    
    143.2461    
    143.7991    
    145.9968    
    146.8243    
    147.1041    
    147.9318    
    146.0179    
    148.2166    
    148.7705    
    151.2447    
    152.0735    
    151.8042    
    152.3582    
    153.4618    
    154.2909    
    156.4937    
    155.9494    
    157.0538    
    158.9826    
    159.8128    
    160.0927    
    161.1981    
    163.6794    
    163.9599    
    165.8920    
    167.5494    
    168.3808    
    169.2126    
    168.3913    
    170.3255    
    172.8115    
    173.3683    
    174.4767    
    175.8616    
    176.6944    
    178.3558    
    179.7419    
    181.9570    
    181.6859    
    183.0726    
    184.4598    
    186.6772    
    188.8957    
    188.9009    
    191.3974    
    190.5719    
    193.0694    
    193.0746    
    195.0190    
    195.0242    
    195.5838    
    197.8063    
    197.8115    
    198.3714    
    199.4861    
    199.7687    
    202.2709    
    205.3302    
    203.9468    
    206.1737    
    205.9014    
    208.4070    
    211.1923    
    212.5884    
    213.7063    
    213.7115    
    216.5001    
    216.2265    
    218.7381    
    222.0874    
    222.3710    
    224.0492    
    225.7279    
    228.8031    
    229.9253    
    231.6062    
    234.6852    
    237.2070    
    240.5700    
    241.6948    
    244.7805    
    246.1870    
    247.5939    
    250.1226    
    251.8110    
    256.5887    
    257.4368    
    259.1279    
    261.3821    
    264.4814    
    266.7386    
    269.2780    
    269.8466    
    272.3878    
    273.5211    
    276.6287    
    277.7625    
    280.5908    
    280.5960    
    282.2958    
    284.5615    
    287.6770    
    291.0774    
    293.9141    
    293.6357    
    297.6075    
    299.5976    
    300.4534    
    302.7283    
    305.5720    
    306.9974    
    310.4120    
    311.2705    
    313.5504    
    312.9869    
    315.8370    
    316.9809    
    321.5430    
    324.1140    
    326.1151    
    328.9739    
    333.5484    
    336.9835    
    341.2798    
    342.1435    
    342.7213    
    344.4445    
    348.7484    
    349.9002    
    354.7827    
    357.9470    
    359.3886    
    363.9940    
    368.0282    
    371.2017    
    372.6476    
    373.8055    
    378.4257    
    380.7401    
    381.3224    
    386.2394    
    389.1364    
    390.5880    
    394.9356    
    399.2875    
    402.7729    
    405.3901    
    409.4614    
    412.3733    
    416.4509    
    422.5713    
    426.3668    
    431.0410    
    435.1355    
    440.9890    
    448.3152    
    452.1324    
    458.8890    
    465.0680    
    469.1935    
    476.8606    
    484.5408    
    492.2345    
    499.3480    
    510.0371    
    516.8818    
    523.7362    
    532.6912    
    540.4672    
    547.9573    
    556.9606    
    564.7786    
    572.6104    
    578.9465    
    581.9698    
    589.5291    
    595.8890    
    601.3488    
    604.0836    
    608.0345    
    611.0770    
    615.9466    
    619.6033    
    621.7403    
    623.8776    
    624.1877    
    628.4613    
    628.4664    
    629.3864    
    628.1718    
    628.1768    
    625.7423    
    626.0519    
    624.2281    
    624.8428    
    620.8870    
    619.6739    
    617.2448    
    617.2498    
    614.8212    
    610.8742    
    608.7525    
    607.5430    
    607.8517    
    606.6425    
    605.4337    
    603.3145    
    603.9263    
    603.9313    
    606.3644    
    606.3694    
    608.1956    
    608.8077    
    612.7629    
    615.2003    
    617.3351    
    617.6441    
    620.0842    
    624.0485    
    627.7124    
    630.1579    
    634.4369    
    637.4966    
    640.5596    
    647.9110    
    650.9799    
    654.9722    
    660.8109    
    665.1191    
    670.6626    
    674.3641    
    678.3763    
    681.4667    
    685.4854    
    687.0354    
    689.5132    
    691.3737    
    688.9048    
    690.7653    
    692.9357    
    692.0123    
    693.5646    
    694.8075    
    696.3604    
    695.1270    
    699.4680    
    701.0225    
    704.1284    
    708.4780    
    712.2102    
    719.3680    
    723.4208    
    731.2202    
    738.4086    
    743.4169    
    749.6844    
    756.9016    
    764.1307    
    771.0565    
    780.8314    
    787.1508    
    793.4795    
    804.8895    
    812.5129    
    823.0156    
    833.8616    
    844.4138    
    859.8051    
    872.6716    
    888.1592    
    905.6463    
    923.2011    
    938.8636    
    957.8611    
    978.2577    
    998.4153    
   1020.3268    
   1039.0033    
   1061.1139    
   1082.3215    
   1103.2902    
   1121.9742    
   1145.5227    
   1169.5388    
   1192.6466    
   1218.3066    
   1242.7148    
   1269.3652    
   1298.2975    
   1326.7042    
   1356.7249    
   1386.9469    
   1416.2832    
   1448.3723    
   1478.8489    
   1509.1626    
   1538.5614    
   1565.1482    
   1592.6486    
   1614.9990    
   1635.9347    
   1656.5847    
   1672.7133    
   1690.8292    
   1706.6930    
   1721.4465    
   1737.8092    
   1751.0989    
   1767.1769    
   1782.9180    
   1797.9236    
   1818.9342    
   1838.0479    
   1859.2468    
   1884.5748    
   1909.2352    
   1935.2543    
   1965.1162    
   1990.6354    
   2020.8683    
   2045.8702    
   2073.5334    
   2102.2131    
   2130.6514    
   2164.8430    
   2195.8394    
   2232.7078    
   2274.2737    
   2314.8958    
   2359.0210    
   2402.6785    
   2451.7896    
   2499.5930    
   2550.2446    
   2600.0547    
   2647.0784    
   2697.4937    
   2744.5754    
   2791.6609    
   2840.2405    
   2895.9036    
   2952.7737    
   3019.6963    
   3099.2258    
   3195.7954    
   3306.0710    
   3428.1902    
   3574.1936    
   3737.8435    
   3916.5132    
   4121.7300    
   4331.8843    
   4535.5933    
   4736.0293    
   4929.1309    
   5105.2671    
   5252.6714    
   5363.8613    
   5450.2061    
   5500.3013    
   5522.8486    
   5518.3359    
   5491.3301    
   5452.0103    
   5399.8164    
   5340.4009    
   5268.9248    
   5194.3613    
   5116.8804    
   5042.3340    
   4974.6001    
   4914.1836    
   4867.0537    
   4832.0278    
   4806.5161    
   4804.2080    
   4812.6982    
   4841.3623    
   4874.9043    
   4907.1211    
   4944.3369    
   4975.4541    
   4991.4976    
   4985.0801    
   4958.6895    
   4907.1499    
   4833.6421    
   4735.4355    
   4608.9658    
   4477.3423    
   4324.4468    
   4157.1699    
   3999.7510    
   3842.0422    
   3690.2712    
   3539.9541    
   3392.2380    
   3254.6733    
   3125.9619    
   2998.2446    
   2893.1687    
   2790.4880    
   2686.2419    
   2600.8621    
   2528.6809    
   2455.3503    
   2381.8435    
   2312.6194    
   2250.1213    
   2185.0310    
   2128.5205    
   2076.9141    
   2025.4766    
   1975.0310    
   1930.8416    
   1888.6947    
   1846.1395    
   1810.7183    
   1773.2131    
   1741.0907    
   1711.5216    
   1682.5309    
   1655.2578    
   1629.2914    
   1609.1569    
   1588.3575    
   1569.1565    
   1549.6627    
   1530.9984    
   1514.2671    
   1498.3373    
   1483.5692    
   1467.3800    
   1451.6149    
   1435.9048    
   1422.4312    
   1408.9978    
   1394.5199    
   1379.3678    
   1367.8584    
   1356.7368    
   1345.2854    
   1330.6543    
   1319.2687    
   1304.0129    
   1294.1084    
   1284.9313    
   1272.9567    
   1261.7162    
   1251.5536    
   1242.4628    
   1232.3442    
   1222.5956    
   1213.2157    
   1203.8553    
   1199.7042    
   1193.8276    
   1190.7218    
   1187.2732    
   1185.5519    
   1188.6637    
   1192.1233    
   1196.2770    
   1204.5916    
   1212.5737    
   1225.0940    
   1243.2386    
   1264.9666    
   1293.1581    
   1323.6611    
   1356.8801    
   1401.1937    
   1452.8995    
   1516.3339    
   1588.5919    
   1675.4734    
   1776.2439    
   1895.0466    
   2034.9506    
   2188.8145    
   2366.9209    
   2572.5039    
   2808.6531    
   3058.9155    
   3325.0142    
   3591.8992    
   3844.9783    
   4095.9736    
   4349.9253    
   4574.8989    
   4759.5190    
   4896.6333    
   4986.4048    
   5028.3276    
   5031.5728    
   5006.5234    
   4963.2148    
   4923.4834    
   4896.6665    
   4898.2441    
   4936.1753    
   5004.1343    
   5116.6963    
   5261.0459    
   5450.0171    
   5643.5498    
   5833.1660    
   6025.0493    
   6171.9136    
   6260.4727    
   6280.7510    
   6228.6553    
   6096.3643    
   5898.5469    
   5658.4712    
   5382.9814    
   5095.3403    
   4810.2852    
   4542.9287    
   4283.6860    
   4051.5764    
   3842.0315    
   3650.7410    
   3480.4351    
   3346.8958    
   3221.5386    
   3119.1453    
   3043.4602    
   2979.2908    
   2927.1846    
   2882.7100    
   2853.1375    
   2836.1855    
   2823.2661    
   2814.8406    
   2810.3884    
   2812.3735    
   2810.3979    
   2813.8687    
   2816.8464    
   2815.3640    
   2811.9019    
   2807.9475    
   2803.9966    
   2794.6204    
   2782.8037    
   2771.9990    
   2759.2625    
   2749.4907    
   2738.7659    
   2726.6084    
   2716.9077    
   2710.1306    
   2703.3638    
   2699.5034    
   2692.7524    
   2687.4563    
   2680.7236    
   2675.4414    
   2665.8499    
   2650.5427    
   2628.6277    
   2602.5635    
   2567.7295    
   2526.6523    
   2479.9634    
   2426.9304    
   2362.8486    
   2305.8555    
   2246.9541    
   2184.5037    
   2116.5386    
   2053.3479    
   1998.8777    
   1942.6086    
   1891.4717    
   1841.7065    
   1796.0403    
   1753.5717    
   1710.7240    
   1670.5857    
   1629.2783    
   1590.2334    
   1551.1501    
   1511.6611    
   1473.2505    
   1435.8944    
   1395.9526    
   1359.5884    
   1320.6699    
   1285.6118    
   1252.2244    
   1221.1696    
   1189.9821    
   1160.0381    
   1135.4073    
   1110.2317    
   1086.8839    
   1065.3356    
   1042.8875    
   1022.8793    
   1004.9485    
    988.0792    
    972.2598    
    957.1522    
    942.4221    
    929.0430    
    918.9551    
    904.6731    
    895.2858    
    887.2103    
    876.8934    
    868.5283    
    858.2544    
    850.2446    
    840.9709    
    836.1832    
    827.8942    
    822.1657    
    817.0808    
    812.0013    
    807.8790    
    802.8099    
    799.0131    
    798.0681    
    797.1229    
    792.6984    
    793.3359    
    792.7076    
    792.0798    
    793.6658    
    795.2520    
    795.8892    
    797.4766    
    802.5490    
    808.5787    
    810.8052    
    816.5284    
    821.9402    
    831.8222    
    840.1276    
    848.4486    
    859.9934    
    868.6721    
    884.1402    
    898.3659    
    915.2350    
    930.2114    
    947.5276    
    964.9111    
    982.3614    
    996.9010    
   1014.1440    
   1027.7870    
   1042.1398    
   1056.8743    
   1068.2936    
   1078.0570    
   1084.8047    
   1093.2522    
   1093.9323    
   1097.3193    
   1097.3240    
   1094.2845    
   1089.2201    
   1083.8252    
   1078.4359    
   1073.7262    
   1064.9882    
   1057.2738    
   1046.8950    
   1037.5417    
   1027.2087    
   1015.9019    
   1003.6294    
    990.7297    
    977.5374    
    964.0546    
    950.2850    
    938.5165    
    924.1735    
    910.5251    
    898.8600    
    889.8091    
    878.5198    
    869.1880    
    860.5175    
    854.1069    
    848.3449    
    846.7496    
    843.8746    
    843.8792    
    845.1638    
    849.3289    
    855.1005    
    861.8432    
    870.5250    
    879.5463    
    890.8476    
    905.0937    
    919.0593    
    934.0476    
    947.7764    
    966.4739    
    981.9504    
    999.4663    
   1018.3800    
   1032.3685    
   1046.4005    
   1059.8060    
   1073.5869    
   1084.0366    
   1091.8059    
   1095.5291    
   1097.2247    
   1097.9056    
   1090.8108    
   1081.7031    
   1070.2598    
   1054.4868    
   1039.1023    
   1018.4487    
    996.8970    
    975.1182    
    949.1863    
    926.3337    
    902.3006    
    877.7501    
    851.4108    
    827.4546    
    805.2092    
    781.8124    
    761.6752    
    743.8166    
    724.1597    
    705.8286    
    690.3527    
    674.6218    
    659.2526    
    643.9357    
    628.9753    
    616.8008    
    605.8721    
    592.5496    
    581.3782    
    570.8357    
    559.4177    
    551.3237    
    542.0475    
    535.1788    
    525.9359    
    517.0094    
    512.8522    
    506.3246    
    502.1773    
    498.3304    
    492.1192    
    489.4629    
    486.8079    
    484.7450    
    482.9783    
    479.4424    
    476.7928    
    474.1453    
    472.9721    
    471.7982    
    468.8600    
    467.9818    
    465.9272    
    465.0499    
    462.9973    
    459.1831    
    458.6004    
    456.8439    
    454.7944    
    453.6260    
    451.5786    
    450.4107    
    448.6574    
    448.6620    
    447.2019    
    447.7926    
    445.4544    
    444.8735    
    444.5857    
    443.1270    
    442.2541    
    441.3811    
    440.2158    
    439.3435    
    438.1791    
    435.5545    
    435.5591    
    432.6434    
    430.8971    
    427.1104    
    425.6573    
    421.5838    
    420.1333    
    416.9370    
    413.7434    
    411.4233    
    406.4919    
    405.3357    
    401.8603    
    396.0710    
    394.3388    
    389.1370    
    386.5409    
    380.7713    
    375.8734    
    373.5727    
    370.1215    
    366.3860    
    364.6653    
    361.7956    
    356.6312    
    353.1934    
    352.0511    
    348.3299    
    345.4706    
    343.4720    
    339.1860    
    336.9044    
    335.7660    
    332.0586    
    328.6395    
    325.5077    
    322.0935    
    318.6819    
    315.2727    
    310.7297    
    305.9074    
    302.5085    
    298.8281    
    296.5665    
    292.0427    
    288.6536    
    285.8324    
    281.0371    
    278.2200    
    275.4050    
    269.2137    
    266.1230    
    264.4400    
    261.3526    
    258.5488    
    253.7822    
    249.5808    
    245.1044    
    241.1912    
    239.5171    
    235.0507    
    230.3089    
    225.2934    
    221.6756    
    220.2882    
    215.2838    
    212.2300    
    208.9008    
    207.2394    
    202.8042    
    201.4223    
    197.8237    
    193.6750    
    191.1891    
    188.7049    
    186.4982    
    185.3973    
    182.0879    
    179.6084    
    176.0276    
    175.4806    
    173.2804    
    169.7046    
    167.7823    
    163.1110    
    161.7413    
    160.9212    
    158.4538    
    156.8109    
    153.7966    
    151.8811    
    150.2407    
    150.2452    
    149.4272    
    145.5965    
    145.8748    
    145.6054    
    143.6935    
    142.6034    
    140.6928    
    140.9708    
    139.0606    
    138.2450    
    137.1562    
    136.3407    
    135.5256    
    132.7986    
    133.0759    
    132.8076    
    131.7201    
    131.1786    
    130.0909    
    130.9145    
    129.8272    
    129.8316    
    128.7449    
    129.8406    
    129.0267    
    129.0312    
    129.0356    
    129.8584    
    127.1352    
    129.0490    
    128.2350    
    128.2394    
    125.5169    
    125.7943    
    124.9809    
    125.8032    
    124.9898    
    125.5392    
    124.1812    
    124.4579    
    123.3722    
    125.8300    
    125.0165    
    124.4758    
    124.4802    
    124.2124    
    126.3969    
    126.6744    
    126.6789    
    126.4103    
    125.0521    
    127.5104    
    125.6059    
    126.7011    
    126.7056    
    124.8017    
    124.2613    
    124.5380    
    124.8151    
    125.6371    
    124.2791    
    124.5558    
    122.9254    
    122.9298    
    122.6615    
    121.8489    
    121.8533    
    119.4073    
    118.0506    
    118.0551    
    116.9712    
    114.2556    
    111.8137    
    110.7314    
    108.8340    
    108.0239    
    106.1277    
    102.6054    
    100.9830    
     99.0897    
    100.4496    
     97.7436    
     93.4160    
     93.1494    
     90.4485    
     90.9937    
     88.0233    
     86.4061    
     83.7096    
     82.9034    
     82.3680    
     81.2925    
     80.4871    
     77.7940    
     78.3374    
     76.4543    
     73.4936    
     70.2661    
     69.4623    
     68.1213    
     67.3183    
     66.2463    
     64.9056    
     63.8345    
     60.3450    
     61.9616    
     60.6228    
     59.2838    
     59.0193    
     56.8761    
     55.2694    
     55.5426    
     53.6684    
     53.6728    
     51.8001    
     51.2681    
     50.7363    
     51.5448    
     49.6730    
     48.8732    
     47.8057    
     47.2745    
     45.9398    
     45.9442    
     45.4130    
     44.0785    
     43.5477    
     44.3554    
     41.4157    
     43.0256    
     41.6921    
     39.5566    
     41.9682    
     39.8329    
     39.8373    
     40.1092    
     37.4397    
     39.3156    
     38.2503    
     38.5224    
     37.1900    
     36.1252    
     34.5267    
     36.1340    
     35.0698    
     35.3414    
     33.2093    
     32.6795    
     33.4848    
     32.6883    
     34.0279    
     32.6971    
     33.5024    
     32.1718    
     33.5112    
     33.2489    
     32.1850    
     31.9224    
     30.8589    
     30.5967    
     29.2666    
     30.8721    
     29.5422    
     28.7461    
     27.9504    
     27.6881    
     28.4928    
     29.2973    
     28.5016    
     26.6390    
     26.3767    
     26.6478    
     28.2523    
     27.1897    
     27.1941    
     26.6654    
     26.9365    
     26.9409    
     25.8785    
     25.3500    
     24.8212    
     24.0259    
     24.8299    
     24.0346    
     24.0390    
     23.5104    
     23.7816    
     22.9862    
     22.4579    
     22.9949    
     21.6678    
     22.2047    
     21.4098    
     21.4142    
     20.6198    
     20.6242    
     21.4273    
     20.8993    
     20.3710    
     21.7072    
     20.6461    
     21.4492    
     21.9864    
     21.9908    
     21.7291    
     20.6680    
     20.4060    
     18.5469    
     18.5513    
     17.2251    
     16.6973    
     18.2982    
     16.1739    
     18.0411    
     16.1826    
     15.9212    
     16.1914    
     16.1957    
     15.6680    
     15.6724    
     14.8790    
     15.1494    
     15.4198    
     15.1581    
     14.6305    
     17.2950    
     15.7029    
     14.6436    
     13.8505    
     11.4625    
     12.2643    
     13.8635    
     13.8679    
     13.8723    
     13.8766    
     12.8174    
     14.1510    
     13.6238    
     13.0964    
     12.3035    
     12.8392    
     12.5777    
     12.5821    
     12.5865    
     10.9964    
     11.5322    
     10.4736    
     10.4780    
     10.2169    
     11.0181    
      9.4286    
     10.2300    
     10.7658    
     11.0356    
      9.1804    
      9.9814    
      8.6581    
      9.4591    
      9.1978    
     10.5302    
     10.8006    
     11.3361    
     10.5433    
      8.1574    
      9.2239    
      9.4939    
      9.4982    
      8.7060    
      8.9756    
      9.5113    
      7.9223    
      7.1303    
      6.3379    
      6.3422    
      8.4705    
      7.9440    
      6.3553    
      6.3596    
      6.8949    
      7.6958    
      8.2313    
      7.7045    
      7.4433    
      5.5896    
      6.1249    
      8.2530    
      6.9297    
      7.4650    
      6.1422    
      7.7392    
      5.3546    
      5.8898    
      7.2215    
      4.6131    
      4.5981    
      4.5832    
      4.5682    
      4.5891    
      5.3893    
      4.8629    
      5.1329    
      4.6065    
      6.9990    
      4.8802    
      4.4488    
      5.4196    
      5.1589    
      5.1632    
      6.7599    
      5.4370    
      4.6455    
      4.6498    
      4.3293    
      4.3931    
      5.1935    
      5.1979    
      4.6715    
      4.2546    
      5.2109    
      4.4191    
      4.2098    
      4.1948    
      4.1799    
      5.4976    
      5.2368    
      5.2411    
      4.1202    
      5.7803    
      4.9884    
      7.1159    
      6.0587    
      4.7363    
      5.5365    
      5.5408    
      6.3414    
      4.4883    
      4.7579    
      3.9559    
      3.9706    
      5.0360    
      5.0403    
      3.8961    
      3.8812    
      4.5228    
      4.2618    
      5.8581    
      7.4552    
      5.8667    
      4.8098    
      7.9989    
      8.2688    
      8.5386    
      7.2153    
      6.6886    
      6.4278    
      5.6358    
      6.4364    
      3.6572    
      3.6422    
      3.6273    
      6.1882    
      5.6617    
      7.2584    
      7.5285    
      5.4095    
      4.3524    
      5.6832    
      4.8917    
      6.2227    
      7.2886    
      6.7619    
      4.6436    
      7.8325    
      7.8368    
      5.1869    
      3.5996    
      3.3734    
      5.9960    
      5.7349    
      6.2701    
      3.3137    
      3.6254    
      6.8136    
      8.4110    
     10.5396    
      7.6233    
      7.0966    
      7.6319    
      7.1052    
      7.1095    
      7.3790    
      3.1494    
      3.6727    
      3.1196    
      4.7426    
      4.4816    
      7.1396    
      7.9401    
      3.0449    
      3.1723    
      4.7684    
      4.5073    
      4.7770    
      7.9659    
      4.2549    
      3.7286    
      2.9375    
      4.5331    
      7.4563    
      9.5848    
      4.5460    
      2.9589    
      4.8199    
      2.9675    
      9.0751    
      9.8762    
      7.7565    
      5.3718    
      8.5614    
     14.1450    
     12.0230    
     12.8243    
     11.2343    
      4.6018    
      2.6567    
      2.6418    
      2.6268    
      2.6119    
      2.5970    
      2.5820    
      4.1012    
      6.4935    
      9.1523    
      8.0946    
     12.0830    
     13.6818    
     11.5604    
     11.2986    
      8.9127    
      4.1398    
      2.4178    
      2.4029    
      2.3879    
      2.3730    
      3.1005    
      6.0226    
      7.6193    
      6.0312    
      9.2208    
     10.2876    
     10.0262    
      7.1097    
      8.1760    
      9.2422    
      8.4501    
      2.1939    
      2.1789    
      3.4210    
      5.0171    
      7.1440    
      7.4140    
      7.9493    
      4.7689    
      7.9579    
     12.4772    
     11.1531    
     10.0947    
      7.9750    
      7.4483    
      7.1867    
      9.3149    
      9.5851    
      6.4035    
      2.6941    
      2.4332    
      5.6202    
      5.8901    
      4.8330    
      5.3679    
      5.3722    
      5.6415    
      7.5038    
      9.1009    
     11.2300    
      9.3747    
      9.3790    
      6.9942    
      5.6714    
      7.0028    
      8.3342    
      8.3384    
      8.8738    
      6.4890    
      7.8202    
      7.2935    
      9.6876    
     10.7541    
      7.8373    
      8.3726    
      7.5806    
      7.5849    
      9.7132    
      9.9828    
      9.9870    
      5.4789    
      9.4644    
      7.6105    
      6.8184    
      7.3532    
     10.5439    
     12.9394    
     11.8809    
     10.5567    
     11.6234    
     12.1591    
     12.4291    
     15.6234    
     13.5008    
     11.3793    
     11.9150    
      9.7942    
     12.4547    
     15.1171    
     13.7919    
     14.8597    
     16.9910    
     11.4134    
     12.4802    
     13.2815    
     12.7545    
     10.3677    
      3.4719    
      1.3551    
      1.0295    
      4.2801    
     10.1233    
     11.4559    
      9.6006    
      7.4810    
      9.6091    
      9.3481    
      6.1672    
      6.7020    
      5.9100    
      5.1185    
      7.5107    
      6.1885    
      8.3160    
     10.9756    
     10.9798    
     12.8438    
     15.5061    
     14.7129    
     11.7936    
      8.8765    
      8.3500    
      6.7615    
      6.7657    
      0.6564    
      2.2650    
      2.5347    
      5.9865    
      6.7870    
      5.4646    
      5.2035    
      7.0651    
      9.9898    
      9.4629    
      8.4053    
     10.7991    
     13.1946    
     15.3254    
     16.1272    
     16.3974    
     12.4143    
      4.9849    
      4.9892    
      7.9125    
      6.8549    
      4.2063    
      1.2939    
      2.0935    
      3.9535    
      5.5495    
     12.1913    
     22.0365    
     18.3145    
     14.3297    
     13.8026    
     12.2125    
     11.1539    
     11.9549    
     12.7564    
     13.0264    
      9.8427    
      1.0924    
      0.0893    
      0.0744    
      1.6353    
      1.1094    
      0.5838    
      0.0147    
      0.0000    
      2.7171    
      9.7011    
     16.1076    
     21.6020    
     30.7530    
     40.8239    
     35.3531    
     26.2296    
     22.5898    
     37.2270    
     42.7286    
     24.4623    
     24.4773    
     34.5453    
     38.2168    
     51.9529    
     17.2306    
     30.9488    
     23.6551    
     36.4643    
     36.4793    
     26.4404    
     26.4554    
     27.3843    
     33.7955    
     24.6730    
     15.5547    
     16.4840    
     10.1077    
     13.7746    
     17.4413    
     19.2831    
     22.0385    
     12.9217    
     21.1540    
     16.6044    
     19.3583    
     24.8535    
     17.5617    
     10.2731    
     13.9401    
     13.0420    
     17.6218    
     24.0312    
     26.7863    
     16.7547    
     19.5086    
     26.8314    
     25.0189    
     17.7270    
     15.0035    
     15.0185    
     31.4752    
     24.1814    
     16.8899    
     15.0786    
     20.5723    
      9.6318    
      7.8213    
     15.1387    
     19.7189    
     10.6037    
      6.9687    
     13.3726    
     17.0401    
     11.5766    
     15.2438    
     14.3457    
     12.5346    
     13.4626    
     18.0424    
     12.5796    
     22.6395    
     24.4817    
     29.0635    
     30.9064    
     19.9591    
     21.7999    
     21.8149    
     23.6570    
     20.9325    
     18.2074    
      7.2688    
     12.7597    
      0.0002    
      8.2265    
     12.8047    
     14.6457    
     10.0970    
      1.8998    
     12.8646    
     11.9667    
     15.6338    
     13.8226    
      9.2731    
     15.6788    
     10.2169    
     11.1437    
     12.0716    
      7.5237    
      3.8884    
      6.6410    
     13.9575    
     25.8441    
     17.6400    
      9.4379    
     18.5821    
     21.3372    
     17.6999    
     18.6271    
     15.9035    
     11.3534    
     14.1073    
     15.9484    
     18.7019    
     17.8047    
     15.0802    
     18.7469    
     24.2414    
     26.0837    
     25.1861    
     12.4160    
     12.4310    
     11.5331    
     18.8516    
     14.3019    
     11.5780    
     16.1580    
     14.3468    
     20.7531    
     25.3357    
     20.7831    
     24.4509    
     21.7264    
     21.7414    
     26.3231    
     22.6837    
     28.1806    
     20.8878    
     24.5556    
     22.7435    
     22.7584    
     20.9476    
     14.5711    
     12.7601    
     12.7750    
     20.0940    
     21.0223    
     17.3841    
     17.3990    
     11.9369    
     15.6037    
     16.5318    
     12.8946    
     12.9095    
      9.2743    
      9.2892    
     11.1297    
     15.7083    
     20.2882    
     20.3032    
     25.7991    
     25.8141    
     21.2614    
     23.1021    
     19.4645    
     24.9591    
     21.3211    
     20.4227    
     19.5243    
     14.9745    
     16.8156    
     18.6569    
     25.0636    
     22.3390    
     23.2664    
     21.4555    
     21.4704    
     16.9201    
     18.7614    
     13.2978    
     21.5301    
     14.2406    
     18.8211    
     21.5749    
     17.9366    
     16.1263    
     19.7929    
     28.9423    
     23.4753    
     35.3690    
     31.7287    
     29.0020    
     26.2768    
     26.2917    
     29.9605    
     37.2870    
     26.3364    
     25.4366    
     21.7986    
     24.5539    
     20.0017    
     19.1044    
     19.1194    
     27.3534    
     30.1096    
     25.5559    
     28.3118    
     18.2796    
     13.7303    
     14.6581    
     13.7601    
     19.2535    
     18.3541    
     12.8919    
     17.4718    
     21.1386    
     24.8073    
     25.7347    
     28.4906    
     28.5055    
     22.1265    
     28.5353    
     27.6365    
     24.9116    
     24.9265    
     24.9413    
     29.5236    
     29.5385    
     29.5534    
     25.9134    
     34.1518    
     31.4247    
     36.0098    
     32.3695    
     37.8680    
     29.6576    
     29.6725    
     29.6873    
     35.1850    
     26.9770    
     22.4242    
     23.3525    
     24.2798    
     25.2093    
     35.2743    
     38.0317    
     40.7886    
     38.9747    
     43.5619    
     45.4061    
     40.8481    
     44.5201    
     38.1359    
     51.8676    
     39.9943    
     38.1805    
     43.6809    
     33.6395    
     40.0538    
     32.7563    
     39.1681    
     46.4982    
     38.2846    
     35.5569    
     36.4859    
     31.9305    
     37.4287    
     34.7022    
     35.6312    
     28.3358    
     37.4882    
     31.1069    
     33.8625    
     36.6197    
     31.1515    
     34.8211    
     42.1492    
     48.5657    
     44.0080    
     39.4505    
     39.4654    
     40.3957    
     43.1528    
     39.5099    
     32.2129    
     33.1428    
     34.9846    
     37.7408    
     37.7556    
     44.1714    
     45.0998    
     43.2865    
     47.8737    
     46.9737    
     44.2457    
     41.5169    
     37.8745    
     44.2902    
     47.0480    
     47.0628    
     42.5057    
     37.0356    
     42.5353    
     38.8937    
     40.7372    
     48.9815    
     49.9112    
     53.5861    
     52.6848    
     46.2976    
     48.1409    
     42.6689    
     34.4565    
     37.2137    
     44.5425    
     46.3867    
     43.6576    
     46.4164    
     36.3737    
     38.2158    
     43.7170    
     54.7079    
     51.9786    
     40.1037    
     41.0340    
     45.6193    
     38.3197    
     37.4214    
     34.6939    
     39.2795    
     39.2943    
     45.7083    
     41.1527    
     37.5104    
     34.7829    
     40.2817    
     48.5266    
     49.4562    
     46.7278    
     52.2307    
     45.8417    
     44.0284    
     44.0432    
     43.1435    
     47.7304    
     39.5167    
     42.2735    
     45.9455    
     40.4744    
     45.0616    
     38.6755    
     47.8341    
     46.9353    
     60.6733    
     51.5380    
     52.4678    
     50.6527    
     44.2655    
     45.1949    
     52.5271    
     42.4810    
     49.8119    
     46.1677    
     46.1825    
     48.9415    
     53.5299    
     54.4609    
     51.7306    
     58.1503    
     55.4194    
     62.7562    
     58.1948    
     53.6336    
     49.9896    
     44.5173    
     51.8491    
     56.4383    
     50.9638    
     50.9786    
     47.3352    
     45.5207    
     51.9379    
     53.7817    
     60.2032    
     57.4719    
     63.8939    
     53.8409    
     58.4317    
     53.8705    
     47.4833    
     52.9861    
     59.4051    
     62.1663    
     58.5205    
     49.3857    
     54.8902    
     63.1410    
     55.8339    
     58.5944    
     60.4400    
     61.3692    
     58.6388    
     59.5679    
     62.3291    
     56.8527    
     53.2081    
     55.9670    
     58.7276    
     59.6566    
     54.1812    
     57.8567    
     58.7868    
     54.2256    
     63.3925    
     67.0690    
     68.9155    
     68.0155    
     65.2830    
     57.9750    
     58.9051    
     61.6650    
     51.6148    
     59.8637    
     56.2185    
     63.5552    
     61.7389    
     53.5186    
     61.7685    
     59.9524    
     64.5447    
     67.3056    
     70.0680    
     69.1668    
     58.1967    
     67.3647    
     60.9724    
     65.5639    
     63.7474    
     57.3554    
     61.0315    
     60.1297    
     61.9754    
     59.2450    
     60.1741    
     64.7664    
     65.6969    
     67.5420    
     66.6421    
     65.7412    
     63.0091    
     54.7873    
     57.5475    
     60.3071    
     58.4923    
     59.4223    
     57.6066    
     59.4519    
     52.1468    
     58.5661    
     54.0063    
     52.1911    
     57.6952    
     64.1167    
     68.7101    
     65.0619    
     61.4156    
     66.0070    
     52.2945    
     58.7138    
     66.0514    
     62.4038    
     66.0809    
     59.6882    
     57.8724    
     56.0579    
     56.9867    
     66.1547    
     74.4117    
     72.5943    
     76.2737    
     70.7918    
     77.2184    
     65.3276    
     66.2580    
     69.9349    
     72.6976    
     68.1327    
     63.5702    
     69.9939    
     63.5997    
     63.6145    
     63.6293    
     67.3066    
     74.6479    
     82.9081    
     84.7562    
     83.8542    
     70.1267    
     70.1415    
     60.0867    
     66.5089    
     68.3541    
     73.8635    
     79.3758    
     69.3152    
     67.4984    
     64.7661    
     74.8545    
     73.9520    
     73.0517    
     81.3110    
     80.4103    
     78.5922    
     79.5233    
     69.4628    
     74.0552    
     67.6607    
     75.0020    
     76.8491    
     77.7791    
     77.7938    
     71.3967    
     76.9081    
     80.5873    
     77.8528    
     83.3653    
     86.1302    
     86.1450    
     94.4108    
     84.3410    
     88.0229    
     85.2872    
     86.2187    
     80.7347    
     91.7488    
     89.9305    
     89.0272    
     87.2081    
     83.5570    
     86.3219    
     98.2572    
     90.0190    
    101.9559    
     99.2189    
     90.9791    
    100.1660    
     92.8428    
     92.8576    
     91.9552    
     91.0528    
     91.9846    
     96.5845    
     95.6830    
     87.4440    
     88.3767    
     87.4734    
     92.0731    
     99.4252    
     99.4400    
    106.7955    
    103.1400    
    102.2359    
     99.4989    
    100.4312    
     91.2738    
     89.4546    
     91.3033    
     96.8202    
    104.1745    
    104.1893    
     87.6944    
     94.1284    
    100.5638    
    105.1660    
    108.8525    
    112.5388    
    109.7990    
    109.8137    
    107.0754    
    106.1722    
    103.4346    
    102.5305    
     99.7935    
    113.5749    
    108.9998    
    109.9315    
    103.5230    
     99.8672    
    103.5524    
    117.3359    
    121.0240    
    127.4712    
    125.6478    
    127.5007    
    124.7583    
    117.4242    
    118.3575    
    117.4537    
    120.2242    
    124.8319    
    126.6846    
    123.0236    
    119.3644    
    114.7878    
    119.3939    
    119.4086    
    133.2065    
    131.3825    
    134.1543    
    133.2507    
    133.2654    
    132.3607    
    126.8613    
    124.1202    
    127.8098    
    133.3390    
    137.0319    
    141.6432    
    137.9799    
    135.2368    
    133.4126    
    140.7833    
    147.2382    
    155.5348    
    151.8672    
    151.8819    
    147.2971    
    143.6303    
    137.2085    
    136.3025    
    140.9158    
    133.5745    
    147.3854    
    145.5587    
    142.8144    
    145.5881    
    149.2826    
    152.0585    
    152.9937    
    156.6899    
    157.6254    
    160.4038    
    165.0218    
    159.5112    
    148.4811    
    154.9368    
    155.8733    
    159.5701    
    159.5848    
    163.2835    
    166.9820    
    163.3129    
    161.4855    
    167.9464    
    176.2557    
    179.0351    
    174.4415    
    182.7519    
    178.1572    
    172.6422    
    173.5797    
    169.9069    
    163.4747    
    160.7274    
    163.5042    
    170.8884    
    173.6679    
    171.8382    
    162.6408    
    168.1817    
    169.1189    
    177.4265    
    180.2071    
    185.7541    
    189.4588    
    184.8612    
    191.3324    
    189.5029    
    186.7511    
    188.6086    
    183.0901    
    194.1754    
    200.6492    
    196.9725    
    197.9092    
    199.7712    
    201.6302    
    207.1867    
    209.9714    
    209.9861    
    207.2308    
    207.2455    
    208.1827    
    198.9646    
    196.2101    
    192.5345    
    192.5492    
    197.1783    
    200.8845    
    200.8992    
    196.2984    
    199.0822    
    194.4841    
    200.0359    
    204.6649    
    212.0678    
    215.7784    
    210.2507    
    210.2654    
    217.6708    
    214.9121    
    218.6234    
    211.2469    
    215.8813    
    216.8190    
    222.3784    
    218.6968    
    214.0921    
    225.1962    
    224.2863    
    223.3775    
    226.1660    
    225.2550    
    231.7422    
    233.6081    
    229.9217    
    233.6375    
    229.0273    
    227.1925    
    221.6609    
    232.7701    
    227.2366    
    230.9506    
    231.8892    
    233.7551    
    232.8436    
    230.0834    
    241.2005    
    243.9910    
    238.4525    
    241.2446    
    244.0350    
    249.6037    
    249.6184    
    243.1524    
    234.8407    
    233.0052    
    233.9461    
    238.5847    
    241.3769    
    236.7646    
    236.7793    
    242.3454    
    242.3601    
    247.0034    
    238.6876    
    237.7769    
    240.5678    
    247.0621    
    252.6318    
    257.2769    
    253.5862    
    253.6009    
    249.9123    
    244.3730    
    250.8666    
    252.7346    
    258.3051    
    257.3944    
    260.1887    
    260.2033    
    255.5857    
    260.2327    
    257.4679    
    256.5550    
    263.9814    
    263.0704    
    268.6455    
    255.6885    
    256.6285    
    252.0130    
    251.1016    
    248.3395    
    246.5024    
    253.9241    
    254.8661    
    259.5107    
    264.1577    
    257.6882    
    261.4080    
    263.2760    
    264.2164    
    272.5735    
    276.2978    
    277.2389    
    266.1300    
    273.5607    
    273.5753    
    273.5900    
    268.9686    
    267.1293    
    274.5604    
    278.2851    
    285.7202    
    279.2421    
    274.6191    
    270.9257    
    273.7222    
    278.3732    
    282.0977    
    281.1857    
    282.1270    
    283.0685    
    277.5179    
    271.0432    
    268.2776    
    268.2924    
    267.3789    
    274.8100    
    280.3890    
    284.1150    
    280.4183    
    276.7237    
    277.6648    
    283.2447    
    288.8288    
    292.5556    
    287.0018    
    294.4420    
    298.1690    
    300.0424    
    292.6290    
    281.5087    
    282.4501    
    286.1754    
    291.7594    
    291.7740    
    292.7171    
    293.6592    
    289.0344    
    284.4087    
    288.1344    
    289.0784    
    290.9474    
    290.0349    
    291.9062    
    298.4186    
    302.1498    
    297.5203    
    287.3249    
    293.8354    
    289.2105    
    296.6493    
    301.3078    
    309.6826    
    312.4869    
    310.6425    
    309.7267    
    315.3198    
    312.5456    
    319.0674    
    322.8000    
    325.6065    
    327.4808    
    329.3564    
    327.5101    
    317.2946    
    318.2402    
    314.5358    
    317.3386    
    322.0031    
    322.9468    
    327.6129    
    334.1418    
    326.7130    
    328.5885    
    327.6716    
    324.8953    
    329.5619    
    339.8145    
    342.6217    
    347.2935    
    347.3082    
    341.7356    
    346.4049    
    342.6951    
    337.1242    
    342.7245    
    340.8767    
    353.0001    
    360.4705    
    356.7552    
    365.1609    
    352.1270    
    353.0735    
    358.6793    
    364.2860    
    368.9640    
    363.3840    
    366.1963    
    360.6172    
    371.8214    
    360.6466    
    348.5469    
    350.4249    
    360.6906    
    358.8408    
    372.8424    
    368.1938    
    368.2085    
    365.4252    
    372.9012    
    371.9828    
    373.8636    
    381.3434    
    383.2252    
    399.1159    
    397.2616    
    397.2763    
    390.7513    
    380.4969    
    380.5116    
    391.7305    
    392.6793    
    400.1679    
    396.4457    
    404.8698    
    411.4288    
    410.5082    
    413.3287    
    415.2142    
    413.3581    
    418.0491    
    428.3579    
    432.1169    
    434.9400    
    437.7648    
    440.5890    
    427.4940    
    429.3812    
    428.4607    
    431.2832    
    431.2979    
    441.6151    
    447.2517    
    451.9526    
    453.8426    
    453.8572    
    460.4361    
    460.4508    
    465.1555    
    474.5544    
    479.2644    
    476.4617    
    476.4764    
    479.3084    
    478.3839    
    469.9508    
    477.4753    
    479.3672    
    488.7754    
    491.6085    
    502.9038    
    502.9185    
    497.2918    
    502.9478    
    506.7253    
    518.9727    
    522.7538    
    526.5348    
    533.1434    
    537.8705    
    541.6550    
    539.7841    
    533.2021    
    536.0441    
    537.0001    
    551.1584    
    561.5516    
    567.2302    
    570.0781    
    564.4279    
    571.9966    
    564.4572    
    569.1912    
    576.7622    
    581.5021    
    586.2422    
    595.7131    
    603.2954    
    601.4184    
    589.1375    
    587.2610    
    591.0582    
    595.8011    
    601.4918    
    608.1312    
    618.5611    
    625.2086    
    638.4950    
    643.2520    
    642.3178    
    646.1280    
    659.4316    
    677.4976    
    687.0223    
    692.7454    
    708.9456    
    703.2462    
    708.9749    
    717.5651    
    722.3455    
    730.9427    
    730.0035    
    749.1051    
    762.4955    
    776.8515    
    782.6065    
    790.2786    
    800.8285    
    806.5921    
    812.3578    
    833.4778    
    837.3335    
    849.8342    
    856.5780    
    861.4009    
    872.9590    
    871.0477    
    873.9498    
    874.9282    
    886.4960    
    899.0361    
    917.3736    
    921.2505    
    923.1961    
    939.6293    
    951.2437    
    958.0302    
    966.7534    
    973.5441    
    991.0007    
   1006.5341    
   1024.0243    
   1034.7278    
   1045.4395    
   1054.2102    
   1064.9348    
   1089.3152    
   1108.8492    
   1127.4304    
   1156.8035    
   1175.4391    
   1204.9003    
   1238.3527    
   1254.1273    
   1281.7587    
   1318.3403    
   1346.0826    
   1391.7549    
   1429.5839    
   1468.5012    
   1508.5168    
   1549.6342    
   1579.7902    
   1622.1005    
   1664.5216    
   1705.0276    
   1761.9030    
   1820.0032    
   1877.2886    
   1946.0931    
   2011.0631    
   2075.2585    
   2157.4258    
   2237.9224    
   2343.0649    
   2451.0256    
   2570.4119    
   2703.6345    
   2861.9221    
   3025.0920    
   3208.8535    
   3404.8862    
   3634.1833    
   3903.9685    
   4193.7568    
   4538.3950    
   4924.0293    
   5356.0415    
   5841.9526    
   6344.4141    
   6914.9629    
   7505.1211    
   8078.5728    
   8663.9170    
   9317.0225    
   9980.8809    
  10584.9902    
  11166.9697    
  11668.6396    
  12077.7285    
  12392.5361    
  12583.2422    
  12659.3691    
  12633.3047    
  12491.6289    
  12249.1113    
  11937.1113    
  11572.8047    
  11167.1318    
  10718.0283    
  10269.0557    
   9859.2734    
   9487.6865    
   9100.3848    
   8744.2227    
   8440.4932    
   8190.9517    
   8000.6851    
   7873.6006    
   7797.8369    
   7783.0356    
   7836.4546    
   7955.7842    
   8157.6675    
   8434.4531    
   8775.8672    
   9195.7217    
   9701.8174    
  10248.5811    
  10918.7783    
  11578.7725    
  12292.6045    
  13091.2012    
  13747.9922    
  14301.0850    
  14841.7090    
  15254.1836    
  15487.2158    
  15540.0098    
  15422.7080    
  15136.6494    
  14692.9561    
  14117.6465    
  13454.3174    
  12736.4600    
  11958.8096    
  11153.0625    
  10363.2666    
   9608.9150    
   8891.6553    
   8191.4512    
   7551.1875    
   6949.5801    
   6399.5996    
   5883.6489    
   5428.4810    
   4983.3989    
   4610.9790    
   4279.1162    
   3963.3223    
   3692.5925    
   3441.0354    
   3210.0583    
   2995.5393    
   2806.6372    
   2625.2991    
   2465.1096    
   2323.3508    
   2191.1907    
   2073.5864    
   1964.0488    
   1876.7527    
   1781.7806    
   1700.5343    
   1629.7823    
   1559.3405    
   1504.2151    
   1447.2815    
   1398.5042    
   1351.8555    
   1306.3311    
   1264.8799    
   1233.3727    
   1205.8571    
   1183.2926    
   1140.2012    
   1116.7529    
   1088.4615    
   1059.2463    
   1047.5845    
   1022.3287    
   1000.0202    
    969.9988    
    960.3369    
    939.0820    
    923.6453    
    902.4391    
    885.1127    
    874.5383    
    871.6648    
    868.7941    
    863.0385    
    851.5189    
    845.7695    
    844.8223    
    845.7989    
    844.8517    
    848.7106    
    853.5293    
    853.5440    
    866.0552    
    866.0699    
    884.3690    
    889.1995    
    885.3626    
    899.8264    
    913.3396    
    920.1066    
    929.7758    
    933.6539    
    932.7015    
    936.5803    
    935.6277    
    924.0571    
    912.4937    
    902.8655    
    890.3529    
    897.1125    
    882.6785    
    869.2206    
    866.3494    
    864.4427    
    858.6865    
    863.5092    
    851.0296    
    852.0042    
    855.8624    
    862.6075    
    878.9756    
    888.6187    
    891.5234    
    905.0292    
    921.4407    
    927.2466    
    945.6152    
    954.3300    
    969.8249    
    995.9969    
   1021.2392    
   1042.6320    
   1068.9219    
   1087.4523    
   1124.5637    
   1154.9042    
   1198.0620    
   1243.3058    
   1295.5908    
   1345.0735    
   1400.6741    
   1471.4409    
   1547.5414    
   1622.9940    
   1702.8567    
   1774.9744    
   1870.9514    
   1962.3571    
   2064.6455    
   2150.9126    
   2235.5498    
   2318.5325    
   2390.3064    
   2453.9070    
   2506.0386    
   2539.1116    
   2557.2849    
   2551.9561    
   2547.6982    
   2528.4983    
   2489.0906    
   2427.5007    
   2357.7004    
   2284.0002    
   2209.5906    
   2120.9604    
   2032.8154    
   1947.2107    
   1866.1567    
   1785.5083    
   1709.3198    
   1643.5830    
   1571.0789    
   1507.9067    
   1448.9733    
   1401.1892    
   1344.6260    
   1293.2012    
   1259.6700    
   1222.2770    
   1192.8199    
   1163.4170    
   1128.2019    
   1098.9172    
   1070.6615    
   1055.0991    
   1036.6353    
   1016.2531    
    996.8654    
    981.3746    
    967.8346    
    947.5375    
    941.7541    
    923.4205    
    907.0375    
    899.3409    
    897.4282    
    892.6274    
    883.9738    
    874.3647    
    877.2667    
    870.5454    
    862.8676    
    859.9966    
    852.3250    
    853.2996    
    841.7883    
    849.4854    
    847.5798    
    852.3987    
    841.8472    
    833.2211    
    838.9970    
    830.3724    
    829.4276    
    825.6043    
    825.6190    
    827.5527    
    832.3655    
    835.2587    
    836.2335    
    835.2882    
    835.3029    
    840.1182    
    843.9731    
    838.2273    
    849.7653    
    848.8193    
    850.7568    
    855.5754    
    875.7827    
    875.7974    
    914.3488    
    913.3977    
    916.3054    
    927.9020    
    933.7097    
    928.8959    
    938.5679    
    954.0450    
    968.5713    
    978.2650    
    985.0609    
    992.8279    
    987.9975    
    997.7052    
   1024.8901    
   1031.7035    
   1048.2445    
   1052.1508    
   1068.7117    
   1076.5192    
   1091.1555    
   1106.7815    
   1104.8438    
   1129.2776    
   1142.9835    
   1173.3567    
   1194.9509    
   1218.5404    
   1241.1790    
   1268.7798    
   1290.5029    
   1313.2444    
   1337.9978    
   1361.7987    
   1393.5846    
   1434.3945    
   1472.3141    
   1503.3168    
   1548.4222    
   1572.5377    
   1619.8546    
   1660.2345    
   1707.8113    
   1754.5131    
   1807.4684    
   1865.7155    
   1931.3671    
   1986.9735    
   2051.0532    
   2107.0757    
   2169.5530    
   2237.5095    
   2298.3958    
   2380.6367    
   2444.1912    
   2517.5884    
   2590.2522    
   2674.0078    
   2753.8760    
   2823.2751    
   2903.8938    
   2975.0427    
   3058.6328    
   3145.9883    
   3229.3623    
   3317.6543    
   3408.6880    
   3513.8499    
   3611.7141    
   3723.9644    
   3840.4810    
   3941.5298    
   4054.9497    
   4172.7227    
   4308.0454    
   4439.7119    
   4583.3804    
   4725.8994    
   4865.9951    
   5016.0454    
   5151.1714    
   5297.5864    
   5431.2813    
   5564.8125    
   5687.7671    
   5799.8955    
   5893.0635    
   5969.5811    
   6027.8760    
   6075.7310    
   6097.0552    
   6102.4023    
   6083.7642    
   6039.8955    
   5977.6191    
   5918.2178    
   5831.4863    
   5733.4922    
   5620.5640    
   5504.5713    
   5376.6670    
   5252.3042    
   5132.6626    
   4992.7461    
   4866.3789    
   4737.3296    
   4627.5366    
   4519.6987    
   4398.1938    
   4299.0293    
   4182.7271    
   4075.4827    
   3991.1394    
   3921.1929    
   3839.9714    
   3756.8557    
   3684.4854    
   3615.8623    
   3547.5305    
   3480.6240    
   3403.8535    
   3336.4197    
   3272.6208    
   3214.6399    
   3159.0874    
   3102.6211    
   3065.0923    
   3018.8508    
   2993.5911    
   2983.7275    
   2969.4822    
   2967.3040    
   2959.6484    
   2978.3000    
   3010.1587    
   3053.0969    
   3113.8430    
   3172.5977    
   3262.8042    
   3356.8911    
   3485.4634    
   3617.3574    
   3766.4705    
   3946.0891    
   4141.8901    
   4383.1650    
   4664.6465    
   4953.6421    
   5283.3696    
   5652.3940    
   6052.6943    
   6456.4326    
   6888.7974    
   7301.5117    
   7678.0020    
   8054.5132    
   8432.3711    
   8742.1543    
   8974.8984    
   9115.8682    
   9167.4492    
   9120.7256    
   8995.7021    
   8780.0078    
   8489.6338    
   8154.3501    
   7791.8315    
   7393.9277    
   7002.8447    
   6601.8145    
   6230.7197    
   5868.0264    
   5523.6406    
   5206.6587    
   4893.3535    
   4634.6367    
   4390.8096    
   4165.9868    
   3983.9373    
   3805.0881    
   3640.7832    
   3481.5405    
   3336.1997    
   3204.3977    
   3083.6069    
   2970.2954    
   2862.1345    
   2777.4321    
   2686.7114    
   2616.8662    
   2544.1191    
   2473.8269    
   2415.4866    
   2359.4705    
   2307.8560    
   2266.8972    
   2229.1824    
   2198.8672    
   2169.6533    
   2146.7402    
   2126.9790    
   2102.0503    
   2077.1592    
   2050.2373    
   2033.6974    
   2009.9462    
   1993.4480    
   1971.8145    
   1947.1261    
   1930.6925    
   1917.3558    
   1895.8260    
   1872.2784    
   1851.8306    
   1816.1002    
   1792.6683    
   1772.3230    
   1745.9084    
   1721.5647    
   1702.3213    
   1680.0682    
   1670.9816    
   1650.7903    
   1631.6318    
   1613.5050    
   1602.4436    
   1592.3936    
   1596.4347    
   1592.4231    
   1601.4949    
   1601.5096    
   1608.5732    
   1621.6843    
   1637.8318    
   1660.0569    
   1666.1342    
   1683.3406    
   1702.5880    
   1738.0958    
   1767.5768    
   1798.1324    
   1838.9594    
   1876.8177    
   1929.1409    
   1975.4548    
   2031.2034    
   2086.1086    
   2142.2463    
   2207.9834    
   2277.1423    
   2345.5464    
   2423.7769    
   2486.4263    
   2552.5271    
   2622.1187    
   2682.3193    
   2734.1025    
   2778.4690    
   2815.3564    
   2839.2756    
   2865.4104    
   2881.7693    
   2868.7070    
   2851.3010    
   2813.2764    
   2771.0078    
   2720.2139    
   2657.7505    
   2591.2468    
   2511.1633    
   2444.2021    
   2370.1272    
   2294.2908    
   2213.5828    
   2127.0364    
   2047.1632    
   1974.8976    
   1905.0083    
   1835.4214    
   1766.1367    
   1690.0641    
   1637.5355    
   1583.1687    
   1534.9961    
   1478.9774    
   1437.0953    
   1372.4856    
   1344.7419    
   1302.2197    
   1262.7679    
   1223.4119    
   1189.0582    
   1158.6923    
   1140.1157    
   1116.6766    
   1090.3462    
   1063.0868    
   1039.7612    
   1026.1761    
   1001.9346    
    985.4741    
    958.3925    
    946.8090    
    923.6510    
    914.9846    
    906.3239    
    893.8137    
    888.0516    
    874.5947    
    866.9164    
    865.0082    
    860.2188    
    856.3895    
    854.4826    
    864.1073    
    867.9682    
    872.7896    
    878.5757    
    877.6295    
    886.3042    
    894.0215    
    904.6337    
    912.3598    
    916.2322    
    926.8569    
    946.1852    
    979.0828    
    993.6254    
   1014.0036    
   1039.2644    
   1065.5386    
   1097.7078    
   1137.7607    
   1178.8944    
   1223.0831    
   1279.2252    
   1345.4695    
   1420.9408    
   1500.7699    
   1590.0481    
   1692.9772    
   1794.5372    
   1905.9733    
   2024.3883    
   2163.4773    
   2306.9404    
   2469.7495    
   2634.2305    
   2828.6406    
   3022.1404    
   3210.2124    
   3402.7700    
   3580.5801    
   3763.8379    
   3941.0603    
   4090.8484    
   4206.4883    
   4293.1768    
   4351.6348    
   4367.1890    
   4344.4971    
   4294.4253    
   4204.2090    
   4096.8472    
   3966.8521    
   3821.7122    
   3672.1484    
   3500.1538    
   3349.0574    
   3191.5891    
   3030.1528    
   2877.9541    
   2729.3450    
   2594.9468    
   2461.6680    
   2352.6748    
   2250.7048    
   2147.2993    
   2052.8340    
   1978.4885    
   1904.4866    
   1846.1464    
   1793.1106    
   1737.2029    
   1682.5024    
   1642.1066    
   1601.8135    
   1569.6538    
   1527.5383    
   1496.5286    
   1475.5592    
   1456.6146    
   1441.6747    
   1426.7511    
   1406.8685    
   1387.0082    
   1381.0662    
   1366.1990    
   1366.2139    
   1356.3140    
   1357.3213    
   1352.3801    
   1357.3511    
   1361.3296    
   1358.3711    
   1356.4032    
   1351.4624    
   1348.5057    
   1358.4307    
   1349.5264    
   1350.5322    
   1345.5931    
   1345.6080    
   1352.5588    
   1346.6298    
   1353.5785    
   1346.6595    
   1349.6455    
   1340.7462    
   1339.7709    
   1341.7664    
   1328.9139    
   1330.9081    
   1331.9115    
   1339.8453    
   1345.8018    
   1342.8462    
   1349.7946    
   1350.8003    
   1346.8531    
   1355.7843    
   1359.7635    
   1367.7111    
   1371.6956    
   1385.6051    
   1393.5631    
   1411.4698    
   1425.4141    
   1433.3940    
   1445.3635    
   1454.3508    
   1469.3317    
   1481.3268    
   1489.3347    
   1499.3479    
   1517.3707    
   1527.4015    
   1532.4254    
   1533.4426    
   1528.4469    
   1527.4612    
   1525.4724    
   1516.4751    
   1503.4808    
   1488.5004    
   1472.5343    
   1462.5690    
   1452.6110    
   1437.6758    
   1418.7759    
   1395.9231    
   1378.0649    
   1356.2614    
   1340.4268    
   1321.6414    
   1291.0283    
   1275.2579    
   1253.5939    
   1241.7968    
   1230.9917    
   1206.4412    
   1192.7162    
   1179.0031    
   1166.2811    
   1150.6345    
   1134.0232    
   1129.1533    
   1122.3289    
   1118.4380    
   1115.5244    
   1105.7791    
   1111.6490    
   1105.8090    
   1106.7986    
   1103.8872    
   1102.9264    
   1103.9171    
   1099.0541    
   1105.8984    
   1109.8162    
   1118.6171    
   1126.4457    
   1121.5770    
   1123.5446    
   1120.6290    
   1123.5745    
   1119.6833    
   1110.9117    
   1103.1205    
   1092.4091    
   1096.3234    
   1088.5404    
   1080.7603    
   1075.9043    
   1065.2111    
   1063.2794    
   1051.6221    
   1040.9438    
   1031.2440    
   1013.7887    
   1011.8633    
   1003.1519    
   1004.1353    
   1007.0594    
    996.4109    
    990.6130    
    986.7543    
    979.9916    
    972.2630    
    957.7722    
    951.9883    
    952.0032    
    951.0506    
    955.8984    
    960.7477    
    957.8619    
    956.9112    
    956.9261    
    964.6738    
    959.8555    
    959.8704    
    962.7865    
    975.3757    
    968.6191    
    982.1823    
    990.9120    
    993.8337    
   1005.4798    
   1009.3729    
   1019.0891    
   1020.0734    
   1022.0297    
   1034.6664    
   1040.5112    
   1055.1068    
   1070.6903    
   1076.5471    
   1095.0767    
   1101.9166    
   1116.5704    
   1127.3275    
   1140.0474    
   1142.9951    
   1149.8579    
   1166.5120    
   1177.3037    
   1188.1016    
   1200.8708    
   1216.5953    
   1228.4041    
   1239.2363    
   1242.2034    
   1253.0449    
   1249.1212    
   1257.9984    
   1251.1204    
   1259.9987    
   1260.0135    
   1260.0286    
   1270.8821    
   1277.7997    
   1276.8271    
   1286.7064    
   1281.7891    
   1277.8595    
   1275.9020    
   1279.8610    
   1275.9320    
   1274.9608    
   1276.9470    
   1289.7870    
   1290.7878    
   1296.7252    
   1293.7793    
   1296.7551    
   1291.8361    
   1284.9425    
   1277.0668    
   1279.0543    
   1275.1256    
   1263.3127    
   1257.4176    
   1242.6676    
   1230.8788    
   1221.0652    
   1192.6080    
   1173.0177    
   1149.5371    
   1129.0233    
   1111.4615    
   1090.0216    
   1068.6093    
   1041.3947    
   1021.0167    
   1002.6045    
    987.1166    
    964.8754    
    936.8721    
    922.4122    
    894.4830    
    874.2911    
    857.9672    
    831.1082    
    820.5783    
    807.1819    
    800.4966    
    788.0725    
    774.7034    
    765.1647    
    747.9987    
    747.0583    
    729.9117    
    729.9268    
    729.9418    
    726.1448    
    725.2081    
    730.9399    
    746.2104    
    757.6760    
    756.7363    
    767.2552    
    770.1353    
    773.9716    
    783.5454    
    795.0377    
    803.6677    
    814.2174    
    825.7305    
    834.3759    
    834.3909    
    831.5282    
    821.9557    
    818.1381    
    801.8729    
    779.8881    
    766.5262    
    742.6809    
    719.8235    
    707.4622    
    688.4571    
    673.2717    
    648.6177    
    625.8943    
    613.6076    
    598.4931    
    581.5042    
    547.5666    
    538.1638    
    525.9420    
    517.4924    
    503.4070    
    494.0301    
    493.1071    
    477.1668    
    480.9348    
    465.9452    
    456.5892    
    450.0492    
    445.3820    
    439.7815    
    439.7965    
    445.4271    
    447.3148    
    441.7136    
    448.2813    
    450.1694    
    449.2479    
    442.7098    
    426.8209    
    430.5760    
    428.7214    
    427.8012    
    424.0768    
    421.2870    
    431.5877    
    428.7966    
    430.6812    
    426.0221    
    419.4925    
    416.7047    
    414.8506    
    417.6682    
    418.6190    
    427.9816    
    431.7381    
    436.4301    
    451.4206    
    451.4356    
    446.7705    
    447.7208    
    443.0557    
    444.0058    
    447.7660    
    444.0359    
    436.5655    
    432.8380    
    444.0810    
    443.1610    
    444.1111    
    441.3190    
    439.4632    
    435.7351    
    421.7232    
    426.4133    
    416.1462    
    409.6219    
    409.6370    
    407.7827    
    416.2064    
    421.8286    
    423.7135    
    418.1197    
    405.9922    
    405.0723    
    389.2224    
    382.7092    
    378.9944    
    377.1459    
    366.9117    
    363.2005    
    357.6290    
    357.6440    
    346.4918    
    339.0659    
    338.1498    
    342.8144    
    328.8850    
    320.5395    
    312.1961    
    311.2838    
    313.1558    
    316.8832    
    318.7570    
    325.2732    
    323.4310    
    322.5158    
    321.6030    
    318.8324    
    312.3468    
    308.6495    
    298.4591    
    297.5466    
    305.9113    
    298.5044    
    291.0998    
    292.0421    
    297.6219    
    298.5647    
    295.7970    
    281.9066    
    299.5365    
    292.1326    
    291.2204    
    294.0175    
    273.6460    
    288.4853    
    289.4264    
    297.7878    
    292.2382    
    282.0574    
    288.5607    
    281.1620    
    275.6192    
    285.8261    
    291.4014    
    292.3438    
    265.4943    
    266.4351    
    285.9015    
    299.8232    
    285.9317    
    275.7550    
    289.6678    
    291.5373    
    292.4796    
    302.6960    
    313.8496    
    314.7921    
    311.0945    
    311.1096    
    318.5511    
    318.5662    
    320.4390    
    310.2405    
    319.5414    
    317.6978    
    324.2155    
    324.2306    
    324.2457    
    326.1180    
    320.5598    
    323.3608    
    320.5901    
    316.8911    
    320.6203    
    322.4933    
    327.1541    
    323.4514    
    322.5386    
    323.4817    
    329.0711    
    331.8757    
    322.5991    
    320.7563    
    324.4874    
    332.8657    
    336.5975    
    346.8428    
    335.6990    
    333.8547    
    317.1480    
    323.6631    
    314.3935    
    332.0571    
    333.9303    
    312.5819    
    315.3814    
    312.6122    
    329.3432    
    331.2172    
    334.9518    
    329.3885    
    304.3352    
    302.4946    
    306.2204    
    308.0917    
    304.3957    
    301.6284    
    307.2101    
    305.3680    
    319.3069    
    300.7601    
    305.4134    
    308.2127    
    286.8989    
    289.6940    
    285.0744    
    278.6053    
    289.7394    
    287.9005    
    294.4057    
    294.4208    
    285.1652    
    296.3037    
    291.6844    
    293.5530    
    288.9345    
    283.3874    
    274.1414    
    259.3458    
    272.3184    
    267.7050    
    264.0185    
    267.7353    
    271.4540    
    278.8779    
    265.0036    
    253.9171    
    253.9323    
    241.0050    
    228.0881    
    234.5679    
    229.0419    
    232.7517    
    236.4612    
    243.8688    
    246.6564    
    267.9474    
    260.5590    
    247.6264    
    239.3232    
    262.4553    
    264.3215    
    272.6668    
    237.5357    
    239.3990    
    242.1869    
    234.8104    
    249.6122    
    245.9300    
    240.4001    
    232.0997    
    237.6570    
    227.5132    
    238.6125    
    230.3152    
    208.1813    
    211.8851    
    214.6682    
    220.2205    
    220.2357    
    199.0376    
    188.9183    
    197.2266    
    205.5370    
    221.2335    
    216.6350    
    219.4178    
    211.1306    
    224.9858    
    218.5415    
    232.4031    
    223.1871    
    220.4329    
    214.9109    
    204.7807    
    205.7191    
    203.8900    
    199.2955    
    191.0188    
    193.7971    
    193.8123    
    189.2218    
    198.4508    
    211.3735    
    199.4018    
    195.7313    
    192.0606    
    192.0758    
    189.3282    
    181.0556    
    181.9916    
    188.4525    
    184.7857    
    180.1967    
    187.5781    
    193.1198    
    201.4278    
    205.1300    
    207.9129    
    195.0235    
    191.3530    
    195.0539    
    200.5982    
    196.0048    
    181.2835    
    170.2558    
    162.9129    
    179.4877    
    186.8686    
    176.7576    
    176.7728    
    178.6290    
    191.5354    
    186.9447    
    189.7233    
    200.7959    
    189.7537    
    175.9588    
    164.9349    
    175.9892    
    183.3684    
    179.7006    
    183.3988    
    188.9390    
    181.5876    
    181.6029    
    174.2549    
    192.6838    
    183.4901    
    183.5053    
    175.2372    
    172.4927    
    178.9485    
    189.0911    
    190.9488    
    199.2565    
    205.7231    
    201.1306    
    202.9885    
    216.8369    
    223.3116    
    218.7141    
    198.4424    
    201.2219    
    206.7681    
    214.1613    
    215.0981    
    218.8055    
    207.7501    
    217.9120    
    224.3882    
    238.2538    
    249.3585    
    260.4719    
    269.7402    
    266.9783    
    271.6224    
    288.3103    
    278.1355    
    273.5200    
    270.7585    
    276.3287    
    284.6795    
    305.0907    
    336.6778    
    319.0414    
    332.0606    
    343.2325    
    354.4099    
    352.5627    
    340.4883    
    338.6439    
    337.7305    
    345.1819    
    347.0576    
    340.5646    
    335.9322    
    333.1589    
    346.1895    
    343.4154    
    346.2199    
    361.1231    
    357.4146    
    361.1536    
    369.5496    
    369.5648    
    355.6140    
    342.6064    
    352.8525    
    354.7301    
    358.4686    
    360.3435    
    359.4289    
    359.4442    
    365.9753    
    375.3066    
    377.1857    
    393.0492    
    396.7954    
    385.6194    
    394.0280    
    389.3791    
    388.4628    
    392.2068    
    392.2221    
    396.9023    
    400.6505    
    409.0670    
    413.7510    
    417.5020    
    438.0822    
    439.9686    
    444.6628    
    436.2571    
    435.3381    
    443.7716    
    452.2117    
    457.8449    
    459.7325    
    448.5126    
    459.7631    
    462.5878    
    460.7304    
    448.5737    
    430.8148    
    431.7663    
    428.0414    
    413.1061    
    416.8591    
    390.7407    
    383.2968    
    371.1978    
    371.2130    
    376.8178    
    376.8331    
    357.2942    
    335.9188    
    324.7845    
    311.8025    
    309.0336    
    296.0645    
    277.5500    
    274.7871    
    275.7273    
    272.9658    
    273.9059    
    265.5919    
    258.2062    
    248.0504    
    245.2936    
    240.6881    
    247.1729    
    231.4832    
    211.1976    
    210.2917    
    202.0087    
    209.3990    
    203.8830    
    204.8202    
    196.5411    
    187.3475    
    198.4148    
    195.6667    
    182.7893    
    188.3286    
    180.0581    
    179.1529    
    175.4879    
    169.0626    
    159.8837    
    159.8991    
    160.8338    
    156.2526    
    150.7550    
    157.2036    
    148.0305    
    153.5578    
    154.4921    
    146.2392    
    141.6633    
    137.0888    
    124.2588    
    123.3557    
    132.5452    
    132.5605    
    129.8238    
    126.1690    
    132.6065    
    139.9648    
    131.7205    
    122.5622    
    116.1583    
    115.2579    
    125.3589    
    135.4674    
    128.1420    
    117.1529    
    133.6776    
    144.7098    
    138.2971    
    138.3124    
    134.6569    
    122.7462    
    131.9352    
    133.7850    
    118.2068    
    118.2221    
    113.6545    
    112.7531    
    115.5186    
    122.8689    
    123.8004    
    126.5678    
    130.2532    
    126.5985    
    120.1942    
    115.6261    
    116.5571    
    101.9129    
     95.5186    
     97.3653    
    106.5397    
    100.1424    
    104.7380    
    112.0832    
    121.2648    
    117.6133    
    118.5445    
    115.8103    
    106.6625    
    103.9282    
    105.7759    
    116.7875    
    125.0566    
    112.2368    
    102.1740    
    102.1894    
    105.8681    
    104.9684    
     98.5718    
    107.7467    
    111.4267    
    123.3603    
    124.2918    
    111.4728    
    108.7399    
    113.3367    
    126.1880    
    108.7860    
    108.8014    
     84.0981    
     98.7563    
     98.7717    
     98.7870    
    102.4660    
     86.0039    
     81.4457    
     92.4414    
     92.4568    
    107.1236    
    108.9706    
    101.6577    
    104.4201    
    101.6885    
    106.2832    
    112.7134    
    116.3944    
    122.8276    
    125.5947    
    130.1962    
    128.3766    
    130.2270    
    121.0703    
    122.0028    
    126.6033    
    125.7024    
    117.4641    
    110.1486    
    108.3312    
    106.5141    
    109.2784    
    123.0431    
    120.3083    
    124.9072    
    120.3391    
    107.5238    
    114.8689    
    113.9676    
    112.1498    
    102.0887    
     99.3565    
    106.6989    
    113.1291    
    113.1445    
    114.0754    
    106.7605    
    111.3577    
    132.4616    
    130.6428    
    138.9175    
    131.5912    
    135.2765    
    134.3741    
    140.8143    
    128.9003    
    139.0100    
    130.7661    
    111.5272    
    118.8750    
    133.5654    
    132.6620    
    126.2571    
    113.4374    
    122.6191    
    133.6425    
    125.4004    
    125.4158    
    133.6888    
    139.2104    
    127.2967    
    119.0601    
    109.9103    
    100.7668    
    105.3599    
    111.7894    
    118.2193    
    117.3190    
    109.0865    
    121.9334    
    132.0385    
    131.1364    
    127.4819    
    130.2497    
    121.0946    
    117.4425    
    116.5412    
    116.5566    
    114.7387    
    113.8386    
    118.4354    
    118.4509    
    124.8855    
    116.6493    
    114.8313    
    114.8468    
    123.1130    
    129.5484    
    135.9863    
    137.8376    
    135.0994    
    136.0327    
    137.8839    
    142.4887    
    148.9318    
    142.5196    
    132.4401    
    130.6204    
    131.5534    
    123.3139    
    103.1689    
    109.5962    
    106.8640    
    112.3763    
    112.3918    
    111.4908    
    112.4227    
    116.1034    
    126.2035    
    125.3028    
    130.8214    
    129.9193    
    120.7638    
    124.4475    
    122.6287    
    129.0638    
    123.5767    
    116.2581    
    131.8627    
    136.4656    
    150.2525    
    143.8399    
    136.5120    
    140.1993    
    133.7897    
    123.7160    
    122.8144    
    115.4962    
    112.7631    
    114.6116    
    121.0423    
    132.9815    
    135.7490    
    142.1892    
    139.4505    
    146.8106    
    144.0721    
    139.4969    
    137.6776    
    129.4353    
    133.1209    
    134.0529    
    140.4935    
    146.9345    
    148.7869    
    148.8024    
    152.4913    
    162.6150    
    164.4693    
    147.9470    
    136.9456    
    134.2079    
    131.4716    
    128.7348    
    128.7503    
    122.3477    
    118.6956    
    131.5491    
    145.3313    
    144.4285    
    145.3623    
    137.1162    
    142.6386    
    147.2445    
    144.5060    
    139.0140    
    128.9363    
    128.9518    
    125.2994    
    129.9003    
    131.7507    
    129.9313    
    129.9468    
    137.3023    
    145.5794    
    137.3333    
    132.7614    
    131.8593    
    116.2867    
    110.8044    
    116.3177    
    106.2556    
    114.5156    
    110.8665    
    117.2964    
    115.4798    
    131.9990    
    130.1796    
    126.5270    
    124.7082    
    123.8066    
    122.9062    
    121.0878    
    110.1066    
    111.9536    
    109.2203    
    115.6506    
    125.7496    
    124.8480    
