  11100 11  1 04TYLF4.SP PYLF   NYC  .000 C S1 010180 00.01   1        
  PROGRAM PE-CONVERT VERSION 02.31                                     
  USER NYC DATE & TIME  1989 12 12 10.22 01.10    4.9000    295K #     
 AU1 TM  50     0     0 YLF              .650000 -  .850000 .00050     
 FILE NAME ON PE-3600 = 004TYLF4.SP       ON PC = 004TYLF4.SP          
 NO_POINTS  =   401.    pts   DATA_INTV =  .000500 æm                  
 MIN_LAMBDA =   .650000 æm     MIN_DATA =  0.000000                    
 MAX_LAMBDA =   .850000 æm     MAX_DATA =  27441.00                    
 SCANSPEED  = .01500000 æm/min SLITWIDTH=   .00050 æmITA =   0.        
       RESP =   2.000   sec        ISMS =   0.       DATE=YY/MM/DD     
       INST = 509.                    ? =   0.                         
                                                                       
  This spectra is part of Database LASERS
 Database LASERS was created by Pat Cross working 
 at NASA Langley Research Center, Internal Operations Group,
 Aerospace Electronics Systems Division, Remote Sensing 
 Technology Branch. phone:(757)864-1633   fax:(757)864-7894 
     e-mail p.l.cross@larc.nasa.gov 
     homepage http://aesd.larc.nasa.gov/laser/dbmain.htm
  EOH     (1X,F11.4)                                                   
   401.         
    186.4699    
    173.3034    
    142.4738    
    151.3940    
    140.4409    
    162.6068    
    173.7402    
    169.4055    
    202.6431    
    238.1178    
    333.4606    
    351.2936    
    395.7794    
    502.6229    
    674.5515    
   1020.5115    
   1631.8719    
   2278.1055    
   1886.9709    
   1172.2472    
    831.9105    
    666.2000    
    588.1010    
    612.7393    
    621.7573    
    675.4780    
    879.5873    
   1236.3506    
   1491.1699    
   1539.1956    
   1356.9462    
   1193.6210    
   1082.8706    
    981.4310    
    911.7247    
    923.0538    
    914.1347    
   1006.5510    
   1056.2629    
   1069.8895    
   1085.7797    
   1083.6008    
   1074.6481    
   1142.5344    
   1158.4491    
   1228.7413    
   1237.8907    
   1235.6998    
   1210.8488    
   1310.7466    
   1435.9417    
   1627.8506    
   1816.0702    
   1963.5918    
   2146.4053    
   2411.6313    
   2779.7146    
   3212.9695    
   3636.4382    
   4273.8472    
   5063.0522    
   6135.3457    
   7341.7480    
   9103.9082    
  11425.8184    
  14344.7324    
  17471.6836    
  20861.8652    
  23957.5859    
  25374.4004    
  24898.0742    
  25732.3945    
  27441.0117    
  21360.2969    
  13004.7773    
   8490.8613    
   6236.2627    
   5096.6934    
   4591.5430    
   4231.3989    
   3823.6477    
   3233.8110    
   2795.7993    
   2483.8054    
   2327.5737    
   2088.5149    
   1901.5149    
   1731.4253    
   1605.4829    
   1516.4348    
   1423.0305    
   1377.5784    
   1377.6511    
   1384.5472    
   1455.2170    
   1573.9773    
   1766.5133    
   2156.5706    
   2641.7976    
   2679.4292    
   2856.0212    
   3023.9092    
   3316.3440    
   3359.3738    
   3126.0908    
   2748.0208    
   2557.9805    
   2471.5049    
   2345.5957    
   2282.8215    
   2104.1951    
   1831.9325    
   1463.3364    
   1125.1571    
    888.5358    
    677.8703    
    633.2435    
    544.0665    
    463.9796    
    346.3284    
    290.9848    
    328.7270    
    293.3389    
    240.2823    
    280.1891    
    235.9953    
    289.1813    
    231.7084    
    238.4110    
    198.6828    
    216.4346    
    209.8669    
    167.9603    
    225.4820    
    234.3950    
    194.6704    
    203.5765    
    137.3952    
    126.4321    
    179.4726    
    201.6377    
    137.6639    
     87.0082    
    164.2840    
    179.8069    
    195.3407    
    190.9872    
    157.9279    
     96.2274    
    111.7237    
    164.7479    
    155.9812    
    211.2706    
    140.6656    
    171.6360    
    178.3254    
    207.1159    
    202.7600    
    187.3579    
    194.0519    
    172.0263    
    172.0910    
    156.6975    
    198.7251    
    223.1055    
    236.4379    
    218.8137    
    254.2645    
    207.8896    
    199.1092    
    214.6467    
    192.6092    
    130.8564    
    181.6886    
    230.3746    
    155.3214    
    170.8388    
    215.0891    
    217.3629    
    182.0663    
    202.0161    
    239.6647    
    197.7207    
    244.2141    
    193.4253    
    231.0627    
    193.5493    
    200.2383    
    171.5865    
    224.6775    
    253.4951    
    227.0145    
    207.1767    
    240.4058    
    275.8732    
    247.1626    
    260.4987    
    192.0167    
    278.3281    
    189.9284    
    269.5929    
    256.3751    
    307.3631    
    269.7737    
    274.2616    
    280.9643    
    267.7425    
    314.3084    
    321.0172    
    347.6791    
    394.3356    
    432.1566    
    414.4414    
    441.1636    
    419.0031    
    461.2890    
    499.1737    
    530.4064    
    628.5937    
    644.2856    
    693.5170    
    682.3953    
    709.2917    
    736.2085    
    807.9697    
    870.8724    
    900.1407    
    947.4320    
    884.5243    
    967.8036    
   1033.2074    
   1080.6497    
   1277.6052    
   1257.2485    
   1245.9701    
   1436.8911    
   1512.1741    
   1635.6342    
   1713.5775    
   1879.0647    
   2070.6604    
   2193.4983    
   2326.0122    
   2540.7749    
   2719.0549    
   2850.9314    
   2995.0657    
   3215.7607    
   3263.4270    
   3651.1516    
   3909.2913    
   4357.0176    
   4780.0273    
   5445.4590    
   6319.0840    
   7182.9673    
   7881.0898    
   8328.9707    
   8455.9482    
   8607.7480    
   8932.1523    
   8732.9268    
   8073.8750    
   6997.6675    
   5992.3745    
   5283.1108    
   4820.3428    
   4495.0986    
   4199.2188    
   3946.6238    
   3726.8821    
   3434.1128    
   3252.8096    
   3131.6091    
   3006.0393    
   2982.4343    
   3034.5559    
   2932.8967    
   3089.1682    
   3284.1384    
   3672.0435    
   4207.2080    
   5022.0820    
   6159.2021    
   6993.5234    
   6508.4990    
   5024.7734    
   3754.2751    
   3011.5044    
   2496.4697    
   2254.1743    
   2050.2791    
   1944.1285    
   1958.0167    
   1872.8142    
   1868.2645    
   1884.4269    
   1820.0623    
   1836.2108    
   1833.9594    
   1880.0267    
   1868.5724    
   1873.2247    
   1944.6930    
   2013.9734    
   1995.5505    
   2027.9348    
   1799.8910    
   1408.9301    
   1136.8087    
    940.6627    
    889.0021    
    723.1238    
    640.4610    
    571.3395    
    511.2401    
    560.2956    
    587.0998    
    609.4575    
    620.6686    
    562.7259    
    712.3878    
    806.5052    
    815.5268    
    788.6702    
   1002.2022    
    853.8221    
    817.9688    
    759.7453    
    679.2448    
    621.2164    
    556.5857    
    572.2380    
    454.2972    
    494.3813    
    389.9822    
    465.5630    
    398.9581    
    425.6571    
    365.7698    
    403.5457    
    308.2371    
    339.3078    
    328.2752    
    346.0568    
    155.8815    
    383.8596    
    297.4556    
    308.5767    
    228.9620    
    123.0325    
    107.6515    
    118.7210    
    308.8173    
    246.8895    
    136.5042    
    224.8762    
     41.8684    
    125.6241    
    143.3165    
    121.3087    
     22.2581    
      0.0000    
     20.1506    
    209.7836    
    114.9306    
     22.4949    
     68.7547    
    196.7198    
     68.8488    
     93.1262    
     90.9721    
    141.7212    
    139.5644    
    117.5555    
     73.5373    
     14.1654    
      0.0000    
    104.5194    
    119.9958    
     84.7814    
     45.1951    
    173.0802    
    157.6790    
      0.0000    
    120.2729    
    157.8171    
    221.9059    
    116.0008    
    180.0236    
     41.2099    
     32.4534    
     17.1050    
      0.0000    
      6.2002    
     37.0365    
      0.0000    
    118.6131    
      1.9842    
     50.4206    
    156.2447    
