  11100 11  1 04TYLF9.SP PYLF   NYC  .000 C SI 010180 00.01   1        
  PROGRAM PE-CONVERT VERSION 02.31                                     
  USER NYC DATE & TIME  1989 12 12 10.26 16.01    4.9000    295K #     
 AU1 TM  50     0     0 YLF             1.100000 - 1.300000 .00100     
 FILE NAME ON PE-3600 = 004TYLF9.SP       ON PC = 004TYLF9.SP          
 NO_POINTS  =   201.    pts   DATA_INTV =  .001000 æm                  
 MIN_LAMBDA =  1.100000 æm     MIN_DATA =  0.000000                    
 MAX_LAMBDA =  1.300000 æm     MAX_DATA =  7464.000                    
 SCANSPEED  = .01500000 æm/min SLITWIDTH=   .00020 æmITA =   0.        
       RESP =   2.000   sec        ISMS =   0.       DATE=YY/MM/DD     
       INST = 509.                    ? =   0.                         
                                                                       
  This spectra is part of Database LASERS
 Database LASERS was created by Pat Cross working 
 at NASA Langley Research Center, Internal Operations Group,
 Aerospace Electronics Systems Division, Remote Sensing 
 Technology Branch. phone:(757)864-1633   fax:(757)864-7894 
     e-mail p.l.cross@larc.nasa.gov 
     homepage http://aesd.larc.nasa.gov/laser/dbmain.htm
  EOH     (1X,F11.4)                                                   
   201.         
      0.0000    
    413.0606    
    130.0426    
    506.5179    
     81.7234    
      0.0000    
    119.3014    
      7.1553    
    229.7584    
      0.0000    
      0.0000    
      0.0000    
    163.8086    
    269.8910    
    227.9668    
    100.1013    
      0.0000    
    135.4918    
     36.4880    
      0.0000    
    243.8443    
      0.0000    
    241.7735    
    519.0220    
      0.0000    
    363.7057    
    253.0971    
      0.0000    
    550.5245    
      0.0000    
    352.9654    
    224.7106    
    147.5348    
    622.1787    
    238.1693    
    293.5154    
    655.8568    
    431.0674    
    406.7216    
    446.7487    
    285.0036    
    320.4795    
    509.1854    
    236.5650    
    504.8701    
    558.3524    
    458.3237    
    645.4324    
    414.0498    
    436.3128    
    712.6420    
    445.3300    
    565.4991    
    381.1080    
    403.3552    
    889.9597    
    490.1029    
    802.6223    
    793.7290    
    361.5531    
    789.3807    
    881.3774    
    800.7141    
   1016.4117    
    559.6119    
    901.8457    
    940.1089    
   1163.3256    
   1097.8969    
   1183.8044    
   1269.8927    
   1458.4829    
   1817.5486    
   1586.3031    
   1492.8396    
   1524.8164    
   1666.5050    
   2092.1057    
   2168.5439    
   2559.6538    
   3191.3955    
   3470.3213    
   3775.2576    
   3193.9622    
   2506.2212    
   2410.6296    
   1616.8420    
   1945.0385    
   1642.1169    
   1257.5308    
   1430.1263    
   1022.7368    
   1573.8320    
   1162.7506    
   1423.5603    
   1407.7028    
   1291.9723    
   1619.8370    
   1360.1779    
   1608.5369    
   1690.9401    
   1640.6654    
   1863.1444    
   1906.9150    
   2242.0903    
   2838.2458    
   3400.2356    
   4181.2451    
   4965.0781    
   5995.1143    
   6476.2964    
   7031.0029    
   7151.2769    
   7075.5122    
   7464.0405    
   7188.1226    
   6963.5278    
   7285.2861    
   6361.1206    
   6554.1636    
   6230.5361    
   5663.9473    
   5590.8940    
   4573.4805    
   4155.5537    
   3901.0579    
   3116.0085    
   2891.4700    
   2401.7100    
   2188.0083    
   2369.2334    
   1982.3977    
   1894.9354    
   1706.7604    
   1546.8179    
   1670.2563    
   1734.4391    
   1725.3363    
   1374.0552    
   1222.1951    
   1079.9255    
   1149.9617    
   1220.1206    
    922.5426    
    743.2661    
    667.3453    
    607.1708    
   1141.2964    
    542.6944    
    614.0463    
    683.2863    
    489.4967    
    977.0533    
    522.9752    
    469.6772    
    627.7969    
    186.3927    
    552.1559    
    558.8954    
    308.1151    
    710.7128    
    368.0333    
    301.6599    
    650.6007    
    275.2401    
    563.7798    
    397.1642    
     15.3273    
    526.1225    
    253.4391    
    160.7844    
    224.8390    
    196.2030    
    141.1294    
     86.1275    
      0.0000    
    141.3126    
    194.2984    
    130.4144    
    112.8520    
    256.3238    
    143.8190    
      0.0000    
     84.4721    
      0.0000    
      0.0000    
     31.8722    
      0.0000    
    150.8555    
      0.0000    
     34.3106    
    142.2244    
     98.2303    
    296.9138    
     45.5469    
      0.0000    
    153.5474    
     14.9578    
     69.9806    
     45.8491    
      0.0000    
