  11100 11  1 04TYLF5.SP PYLF   NYC  .000 C SI 010180 00.01   1        
  PROGRAM PE-CONVERT VERSION 02.31                                     
  USER NYC DATE & TIME  1989 12 12 10.22 51.41    4.9000    295K #     
 AU1 TM  50     0     0 YLF             1.550000 - 2.200000 .00100     
 FILE NAME ON PE-3600 = 004TYLF5.SP       ON PC = 004TYLF5.SP          
 NO_POINTS  =   651.    pts   DATA_INTV =  .001000 æm                  
 MIN_LAMBDA =  1.550000 æm     MIN_DATA =  0.000000                    
 MAX_LAMBDA =  2.200000 æm     MAX_DATA =  18720.00                    
 SCANSPEED  = .01500000 æm/min SLITWIDTH=   .00050 æmITA =   0.        
       RESP =   2.000   sec        ISMS =   0.       DATE=YY/MM/DD     
       INST = 509.                    ? =   0.                         
                                                                       
  This spectra is part of Database LASERS
 Database LASERS was created by Pat Cross working 
 at NASA Langley Research Center, Internal Operations Group,
 Aerospace Electronics Systems Division, Remote Sensing 
 Technology Branch. phone:(757)864-1633   fax:(757)864-7894 
     e-mail p.l.cross@larc.nasa.gov 
     homepage http://aesd.larc.nasa.gov/laser/dbmain.htm
  EOH     (1X,F11.4)                                                   
   651.         
     10.0831    
    157.5368    
    239.2256    
    228.2427    
    129.0761    
    157.7730    
    204.1431    
    193.1697    
    305.8842    
    230.8051    
    372.4119    
    414.5868    
    407.9945    
    372.5891    
    281.9133    
    386.0022    
    321.8405    
    332.9667    
    297.6267    
    310.9562    
    286.6874    
    246.9719    
    317.7690    
    236.0490    
    267.0330    
    211.8840    
    433.2198    
    284.8927    
    355.7550    
    285.0110    
    320.4577    
    234.3137    
    358.2066    
    402.5829    
    433.6931    
    544.8420    
    223.5720    
    536.0659    
    394.0153    
    540.6287    
    292.2932    
    360.9544    
    305.6798    
    312.3761    
    374.4227    
    316.9199    
    421.0935    
    286.0766    
    410.1241    
     67.9160    
    432.4242    
    359.3318    
    652.7796    
    374.9561    
    530.3995    
    486.0014    
    532.7398    
    599.5797    
    406.2817    
    726.8745    
    517.4115    
    868.0240    
    379.9221    
    651.2038    
    637.8826    
    693.7265    
    649.1537    
    589.0343    
    575.7336    
    671.6379    
    627.0896    
    544.7543    
   1007.9438    
    772.4236    
    942.8622    
    705.4857    
    992.4341    
   1014.9904    
   1069.0975    
    947.6508    
   1028.6733    
   1277.1204    
   1411.0314    
   1372.4777    
   1130.3448    
   1411.2100    
   1377.1978    
   1354.5576    
   1261.6882    
   1297.9868    
   1447.8827    
   1598.3306    
   1470.7533    
   1423.0492    
   1580.2506    
   1630.5405    
   1724.3754    
   1751.9216    
   1852.9275    
   2039.4756    
   2129.6316    
   2060.3665    
   2097.3862    
   2410.6086    
   2688.7212    
   2508.6482    
   2733.4106    
   2719.3904    
   2966.5618    
   3089.5566    
   3115.6677    
   3170.2561    
   3563.6423    
   3657.2285    
   3719.7593    
   3990.0154    
   4099.1431    
   4533.5029    
   4612.1328    
   5101.7285    
   5438.9648    
   6188.2026    
   6694.6030    
   7557.1846    
   8292.8877    
   9813.6260    
  10771.1963    
  12288.0625    
  13629.8486    
  15243.0254    
  16545.5469    
  17494.8320    
  18184.7246    
  18511.6641    
  18719.5313    
  18013.9082    
  17589.5879    
  16651.4473    
  16493.3809    
  15464.2451    
  15055.9766    
  14024.8730    
  13325.3057    
  12312.7529    
  11342.0928    
  10812.3604    
  10010.7637    
   9553.3662    
   8653.6113    
   8264.8076    
   7754.7427    
   7648.7700    
   6909.0308    
   6737.8647    
   6369.3789    
   5986.3989    
   5834.2456    
   5285.9824    
   5201.1855    
   4735.1914    
   4710.6113    
   4281.8350    
   4041.2734    
   3785.2644    
   3802.1826    
   3514.1602    
   3394.7834    
   3301.9263    
   3081.2605    
   3057.6567    
   2814.7842    
   2894.8762    
   2791.3950    
   2749.1746    
   2730.4568    
   2559.5649    
   2697.7371    
   2629.8540    
   2864.6812    
   2688.5417    
   2744.9023    
   2754.3557    
   2782.6018    
   2933.3201    
   3023.0984    
   2952.3130    
   3042.1328    
   3146.3691    
   3163.0281    
   3303.2583    
   3544.3953    
   3671.5298    
   3999.4932    
   4169.3589    
   4315.5303    
   4410.8467    
   4445.1582    
   4235.2900    
   3703.1819    
   3449.2927    
   2915.4897    
   2776.7065    
   2451.5183    
   2498.2180    
   2319.0071    
   2288.8826    
   2179.9839    
   2277.3975    
   2140.7688    
   1891.7909    
   2083.1069    
   1947.1215    
   1995.5553    
   1580.5807    
   1763.5629    
   1455.4197    
   1685.8417    
   1371.4755    
   1439.6857    
   1323.9617    
   1294.5594    
   1258.3918    
    884.4426    
   1244.9365    
    913.7339    
   1211.1328    
    649.8708    
    945.3513    
    905.0013    
    878.1457    
    799.7957    
    732.7686    
    970.3718    
    770.8982    
    943.5321    
    632.5880    
   1042.5988    
    822.6143    
   1060.7377    
    708.6931    
    874.3367    
    908.0449    
    885.6714    
    903.6795    
    668.8213    
    941.9656    
    738.1617    
    807.5554    
    653.4575    
    794.2506    
    682.5786    
    841.3961    
    662.6245    
    671.6081    
    772.1924    
    720.8437    
    808.1113    
    799.2241    
    712.0966    
    877.7522    
    889.0236    
    763.6763    
    873.4529    
   1111.8650    
   1184.1548    
   1012.8815    
    907.3455    
   1143.6974    
   1164.0774    
   1227.4133    
   1220.6902    
   1454.3204    
   1470.3046    
   1452.1702    
   1229.9858    
   1500.0792    
   1506.9705    
   1742.2473    
   1669.0869    
   1575.5238    
   1564.1869    
   1990.5925    
   1790.6785    
   1834.3313    
   1527.9678    
   1507.5308    
   1516.7012    
   1244.3671    
   1215.0291    
    886.3455    
   1289.8271    
    884.2247    
    823.7870    
    738.8474    
    848.5469    
    873.2617    
    723.3936    
    730.1562    
    674.4069    
    931.8478    
    598.7489    
    705.8406    
    541.0177    
    781.9510    
    652.4804    
    494.5320    
    710.6206    
    468.0131    
    726.3824    
    439.2930    
    637.2490    
    488.2474    
    599.5020    
    495.0346    
    364.2603    
    628.6524    
    530.7782    
    613.1796    
    499.7926    
    579.9050    
    380.1421    
    785.3199    
    680.3777    
    870.5413    
    769.8531    
    996.3937    
   1169.9651    
   1052.7719    
   1188.1583    
   1043.8910    
   1190.5470    
    992.2751    
   1073.3586    
    918.2723    
    918.3356    
    952.0795    
    918.4622    
    793.0410    
    860.2810    
    773.0385    
    784.2839    
    739.6322    
    512.4205    
    590.3257    
    465.9093    
    434.9120    
    306.5458    
    355.2766    
    209.5121    
    326.6421    
    386.4675    
    315.7095    
    218.5913    
    304.7827    
    466.5454    
    331.4463    
    366.9202    
    309.4600    
    285.2092    
    327.2792    
    360.5327    
    336.2543    
    440.4315    
    278.9017    
    369.6428    
    186.3434    
    263.6290    
    279.1575    
    252.7171    
    425.3560    
      4.1202    
    272.7852    
      0.0000    
    290.5862    
     90.0499    
    147.3279    
    191.4576    
    110.0365    
     57.3317    
      0.0000    
    313.1411    
      0.0000    
    333.1747    
      0.0000    
    293.5056    
    101.7500    
    271.5395    
    220.8328    
    119.5442    
    362.3928    
    282.8418    
    353.6664    
     38.4644    
    469.0460    
    327.3109    
    371.6345    
    219.2097    
    168.5665    
    433.8722    
    274.5876    
    367.5315    
    179.8444    
    301.2963    
    232.8997    
    378.8608    
    184.5120    
     19.6084    
    279.5218    
    270.7522    
    270.8171    
      0.0000    
     85.8402    
     17.8023    
    156.3869    
      0.0000    
      0.0000    
      0.0000    
    106.0237    
      0.0000    
      0.0000    
    126.0195    
    249.5157    
    134.9529    
      0.0000    
    124.0818    
     88.9507    
    298.4352    
     91.2778    
    210.2585    
    179.4611    
    469.2317    
    206.0434    
    318.7236    
     78.4791    
    349.8225    
    294.6028    
    168.9031    
    193.2083    
    160.2214    
    292.6574    
     30.6059    
    114.1903    
     32.9358    
    312.8104    
     13.3072    
    116.6534    
      0.0000    
     55.2257    
    171.8916    
      0.0000    
    130.1852    
      0.0000    
     88.5218    
     77.5966    
     44.7018    
     40.3773    
     14.0972    
    245.2559    
      9.8420    
    199.0651    
      0.0000    
    402.5260    
    102.3754    
    265.5190    
    128.9079    
    181.8284    
    259.0951    
    217.2324    
    352.0612    
     14.9568    
    363.2587    
    186.6315    
    186.6978    
    160.3270    
    230.9343    
    153.8544    
    103.3032    
    184.8283    
     83.6459    
    207.0060    
    266.6466    
    160.8586    
     31.1884    
    169.8041    
    156.6530    
    134.7049    
    108.3659    
      0.0000    
     97.5062    
    174.6084    
    139.4389    
     51.5507    
    137.3736    
    159.4589    
     84.7128    
    258.8167    
    367.2068    
    164.1295    
    186.2293    
    245.8408    
    256.9461    
    287.9308    
    265.9103    
    330.0589    
    208.6762    
    246.2432    
    215.4244    
    310.4305    
    173.6801    
    323.8293    
      6.7260    
    129.8451    
    222.4454    
    114.5753    
    193.9142    
      0.0000    
    196.2535    
     13.7787    
    167.7438    
      0.0000    
    132.6502    
      0.0000    
    123.9842    
     51.5067    
      0.0000    
    141.7911    
      0.0000    
    234.4869    
      0.0000    
    142.0618    
     67.3556    
    153.2070    
     96.0674    
      0.0000    
    142.4008    
     76.4861    
    226.2715    
     41.4730    
     15.2005    
     78.9560    
    224.3398    
    129.6714    
     81.3557    
    195.8782    
    204.7652    
    268.8169    
     64.0507    
    156.4971    
    165.3730    
    258.0490    
     44.5546    
      0.0000    
     73.2480    
    211.9947    
      0.0000    
      0.0000    
      0.0000    
    177.0036    
     20.9521    
      0.0000    
      0.0000    
     18.9653    
    153.1184    
      0.0000    
     23.5611    
      0.0000    
     25.8910    
     56.6994    
      0.0000    
      0.0000    
      0.0000    
      0.0000    
      0.0000    
     35.1517    
      0.0000    
    264.2478    
     68.3047    
     61.7818    
    101.4104    
     22.3958    
    286.6767    
      0.0000    
    189.7388    
      0.0000    
    317.8891    
    172.3206    
    106.3620    
    115.2275    
     44.9714    
    174.8006    
      0.0000    
     97.9139    
      0.0000    
    133.2443    
    115.7127    
     52.0459    
     89.4658    
      0.0000    
    171.0191    
     89.6743    
    166.7552    
     28.3109    
    230.8096    
     83.3602    
     43.8894    
     65.9204    
      0.0000    
     61.6656    
      2.4697    
      0.0000    
      0.0000    
      2.6792    
    134.5674    
    198.5060    
    112.7093    
    218.4848    
     64.4917    
    293.6654    
    154.8004    
    247.4430    
    130.7285    
    216.7023    
    205.7474    
    192.5940    
    170.6327    
      1.4663    
    347.3511    
    104.8229    
    292.2304    
     98.3689    
    206.3095    
    212.9946    
    149.1757    
    171.2658    
     70.1506    
    434.3449    
     81.2773    
    220.0307    
      8.9608    
    151.8737    
    237.8871    
    167.4249    
    165.2957    
      0.0000    
    231.5540    
    143.4919    
    196.4196    
      0.0000    
    104.1086    
     95.3839    
      0.0000    
