  11100 11  1   BR86     POSU   BMW  .000 U S1 022092 00.01   1        
  PROGRAM LAMBDA-9   VERSION 02.31                                     
  USER BMW DATE & TIME  1992 02 24 09.41 48.77    4.3900    295K S     
 AU1 TM 300     0     0 YLF              .740000 -  .850000 .00020     
 FILE NAME                                ON PC = BR86.DX              
 NO_POINTS  =   551.    pts   DATA_INTV =  .000200 ˆm                  
 MIN_LAMBDA =   .740000 ˆm     MIN_DATA =    .48050                    
 MAX_LAMBDA =   .850000 ˆm     MAX_DATA =    .93950                    
 SCANSPEED  = 30.000000 NM/MIN SLITWIDTH=   .40000 NM                  
  RESP TIME =  1.0      sec SENSITIVITY = 2          DATE=92/02/20     
 HORIZONTAL POL. (E PERPENDICULAR TO C-AXIS)                           
  This spectra is part of Database LASERS
 Database LASERS was created by Pat Cross working 
 at NASA Langley Research Center, Internal Operations Group,
 Aerospace Electronics Systems Division, Remote Sensing 
 Technology Branch. phone:(757)864-1633   fax:(757)864-7894 
     e-mail p.l.cross@larc.nasa.gov 
     homepage http://aesd.larc.nasa.gov/laser/dbmain.htm
  EOH     (1X,F11.4)                                                   
   551.         
      0.8985    
     20.4401    
     15.5563    
      8.2345    
     21.2705    
     17.2014    
     20.4661    
     13.9536    
     15.5874    
     36.8000    
     35.9883    
     23.7525    
     45.8057    
     44.9930    
     43.3632    
     32.7479    
     40.9215    
     36.8413    
     26.2356    
      5.0629    
     29.5093    
     54.0341    
     35.2338    
     27.0766    
     24.6350    
     39.3331    
     44.2425    
     42.6124    
     42.6175    
     50.8011    
     27.9284    
     36.0961    
     21.4146    
     20.6049    
     36.1114    
     36.1165    
     40.2065    
     24.7013    
     35.3154    
     44.3088    
     36.1419    
     51.6806    
     55.7789    
     55.7840    
     68.9014    
     46.7923    
     63.9918    
     73.0191    
     54.1715    
     54.1765    
     55.0004    
     42.7342    
     47.6451    
     59.9294    
     69.7722    
     66.4966    
     53.3930    
     64.0471    
     74.7157    
     32.9714    
     61.6035    
     60.7890    
     71.4529    
     71.4579    
    102.7068    
     94.4775    
     92.8364    
    106.0182    
    108.4962    
    112.6246    
    110.1552    
    110.1601    
    115.9402    
    100.2804    
    115.1252    
    113.4796    
     97.0015    
    115.9650    
    134.9764    
    120.9288    
    130.8503    
    114.3345    
    111.8645    
    114.3444    
     91.2803    
    118.4808    
    138.3263    
    145.7844    
    141.6479    
    148.2803    
    167.3727    
    164.0546    
    170.7070    
    160.7428    
    164.0693    
    193.1996    
    194.8724    
    199.0479    
    194.8822    
    190.7183    
    211.5889    
    199.9019    
    236.7135    
    241.7512    
    236.7233    
    234.2130    
    255.2035    
    252.6871    
    224.1749    
    250.1758    
    252.7016    
    253.5464    
    259.4363    
    267.8568    
    267.0195    
    256.9282    
    278.8248    
    290.6435    
    290.6483    
    301.6396    
    327.9079    
    314.3459    
    313.5040    
    336.4136    
    355.9850    
    374.7528    
    387.5767    
    408.9956    
    377.3293    
    400.4324    
    398.7240    
    411.5889    
    409.0195    
    420.1839    
    439.1111    
    421.9115    
    438.2593    
    482.3068    
    480.5793    
    499.6577    
    482.3211    
    480.5936    
    515.3134    
    540.5861    
    530.1248    
    542.3416    
    549.3328    
    556.3311    
    590.5208    
    561.5895    
    606.3600    
    642.5453    
    659.3748    
    684.2431    
    702.0569    
    694.0425    
    705.6333    
    716.3489    
    729.7634    
    719.9320    
    708.3283    
    758.4642    
    757.5707    
    738.7397    
    759.3761    
    786.3768    
    792.6943    
    829.7803    
    819.8186    
    804.4460    
    845.2225    
    850.6798    
    877.0950    
    902.6868    
    932.9592    
    934.8024    
    926.5380    
    947.6921    
    979.0687    
    985.5485    
   1022.6603    
   1045.0164    
   1078.6721    
   1091.8043    
   1112.4825    
   1118.1356    
   1154.0096    
   1194.8090    
   1197.6678    
   1228.1855    
   1282.8480    
   1323.3795    
   1318.5479    
   1385.5631    
   1465.9800    
   1523.3802    
   1587.2256    
   1644.5437    
   1716.5498    
   1820.1694    
   1904.3049    
   1986.2151    
   2093.6072    
   2201.4534    
   2352.8411    
   2449.8574    
   2597.1711    
   2748.5676    
   2831.9028    
   2925.7156    
   2998.9556    
   3015.8684    
   3060.7412    
   3086.3298    
   3097.3259    
   3118.1348    
   3152.5300    
   3237.9548    
   3340.7385    
   3453.8931    
   3570.0603    
   3718.4763    
   3896.9587    
   4071.3962    
   4230.0479    
   4379.0522    
   4522.1880    
   4609.6821    
   4599.2534    
   4523.6753    
   4421.1494    
   4215.9058    
   4054.7830    
   3954.2524    
   3846.9382    
   3757.0996    
   3682.8176    
   3659.0981    
   3665.6855    
   3696.0439    
   3759.7881    
   3816.0083    
   3948.8220    
   4029.9189    
   4159.5308    
   4277.1055    
   4435.7837    
   4578.5156    
   4736.1040    
   4889.2910    
   4970.1890    
   5048.7964    
   5026.7100    
   4995.2666    
   4931.2080    
   4855.3511    
   4745.2437    
   4678.7358    
   4566.6909    
   4565.2129    
   4574.1187    
   4617.2949    
   4692.3149    
   4820.0381    
   4932.8086    
   5020.4678    
   5034.6543    
   5020.4766    
   4948.4048    
   4867.7471    
   4786.4111    
   4743.7925    
   4734.6934    
   4680.3105    
   4574.1802    
   4479.7690    
   4315.8833    
   4106.4507    
   3883.6418    
   3636.9460    
   3460.5720    
   3266.9282    
   3093.9634    
   2933.2183    
   2862.9878    
   2730.2620    
   2636.5315    
   2587.2417    
   2502.0261    
   2380.9702    
   2291.4290    
   2213.8022    
   2089.7263    
   2020.4847    
   1955.0229    
   1886.9938    
   1828.8690    
   1755.8088    
   1702.7438    
   1685.4781    
   1607.7500    
   1613.7827    
   1574.6865    
   1550.7288    
   1526.8459    
   1539.7799    
   1517.9166    
   1552.7397    
   1547.7599    
   1528.8555    
   1530.8477    
   1534.8301    
   1531.8507    
   1528.8727    
   1475.3907    
   1458.6342    
   1441.9149    
   1411.5179    
   1376.3693    
   1404.6785    
   1353.0328    
   1333.6371    
   1369.5699    
   1345.2797    
   1378.3433    
   1353.0541    
   1349.1744    
   1344.3264    
   1319.1495    
   1323.9900    
   1301.7739    
   1301.7781    
   1265.2129    
   1265.2172    
   1266.1816    
   1219.2823    
   1200.2257    
   1175.5216    
   1120.6954    
   1089.6788    
   1030.8116    
   1014.0788    
    985.3446    
    943.8238    
    912.6039    
    892.4723    
    907.1151    
    856.9163    
    854.1912    
    812.4755    
    802.5370    
    786.2995    
    783.6002    
    775.4996    
    761.1161    
    713.6555    
    713.6597    
    718.1287    
    729.7549    
    704.7499    
    727.0799    
    742.3031    
    736.0369    
    766.5457    
    742.3156    
    750.3890    
    733.3679    
    753.0896    
    738.7485    
    715.4994    
    775.5706    
    779.1754    
    734.2876    
    758.5007    
    695.0096    
    665.6816    
    617.0491    
    598.5648    
    555.6038    
    559.9807    
    520.7175    
    496.3907    
    479.0629    
    451.4184    
    438.4966    
    440.2232    
    395.5773    
    390.4466    
    360.5654    
    345.2455    
    364.8354    
    333.3560    
    313.8553    
    341.0106    
    297.7881    
    307.9412    
    298.6416    
    291.0419    
    302.8770    
    281.7671    
    277.5558    
    265.7682    
    285.9977    
    257.3650    
    276.7291    
    266.6258    
    222.1502    
    190.4229    
    203.7712    
    211.2921    
    186.2696    
    185.4407    
    165.4852    
    138.9576    
    129.8628    
    117.4767    
     78.7891    
    117.4848    
    101.0005    
    121.6209    
     87.0214    
     94.4270    
     76.3504    
     96.9039    
     73.8964    
     51.7767    
     96.9160    
     51.7848    
    106.8077    
     96.9281    
     88.7057    
     78.8496    
    128.2825    
    110.1253    
     94.4794    
     33.0211    
     69.0228    
     93.6685    
    109.3207    
     93.6765    
    102.7360    
     87.1058    
     37.9477    
     52.6668    
     55.1260    
     56.7676    
     83.0166    
     68.2466    
     31.4411    
     34.7094    
     36.3465    
     34.7173    
     33.9053    
     18.4157    
     36.3624    
     29.0208    
     35.5537    
     17.6169    
     10.2939    
     15.1817    
     22.1784    
     31.0821    
     10.0066    
     40.4816    
     67.4939    
     66.6784    
     65.8624    
     83.9216    
     86.3909    
     74.0757    
     94.6224    
     56.8706    
     16.0474    
     52.7856    
     42.9766    
     56.0675    
     46.2542    
     44.6228    
     48.7152    
     57.7209    
     50.3587    
     10.3844    
     58.5512    
     60.1934    
     41.3812    
     36.4845    
     34.8552    
     11.2213    
     69.2283    
     66.7725    
     58.5824    
     39.7748    
     10.4273    
      1.4853    
     46.3245    
      6.6303    
      6.6264    
     26.8933    
      1.7458    
      6.3867    
     30.9295    
     49.6223    
     17.7931    
     24.3161    
     34.1091    
     34.1130    
     48.8241    
     65.2026    
     64.3868    
     15.3770    
     16.1953    
     27.6086    
     26.0258    
     48.0331    
     27.6202    
     82.4650    
     39.0545    
     13.8493    
      4.8338    
     32.5343    
     12.9770    
     22.7554    
      4.8491    
      5.7107    
      7.3305    
     43.1743    
     31.7454    
      9.7485    
      0.8073    
     38.0985    
     33.2416    
     41.3240    
     12.1691    
     25.1354    
     21.8911    
     28.5163    
     44.0332    
     38.3179    
     18.7459    
     23.6388    
     21.8683    
      4.8299    
     38.3369    
     22.8392    
     36.7114    
    101.4975    
     55.5224    
      3.1830    
     19.5986    
    109.7524    
    109.7562    
