  11100 11  1   BR88     POSU   BMW  .000 U S1 022092 00.01   1        
  PROGRAM LAMBDA-9   VERSION 02.31                                     
  USER BMW DATE & TIME  1992 02 24 09.48 03.86    4.3900    295K P     
 AU1 TM 300     0     0 YLF              .740000 -  .850000 .00020     
 FILE NAME                                ON PC = BR88.DX              
 NO_POINTS  =   551.    pts   DATA_INTV =  .000200 ˆm                  
 MIN_LAMBDA =   .740000 ˆm     MIN_DATA =    .21200                    
 MAX_LAMBDA =   .850000 ˆm     MAX_DATA =    .93000                    
 SCANSPEED  = 30.000000 NM/MIN SLITWIDTH=   .40000 NM                  
  RESP TIME =  1.0      sec SENSITIVITY = 2          DATE=92/02/20     
 VERTICAL POL. (E PARALLEL TO C-AXIS)                                  
  This spectra is part of Database LASERS
 Database LASERS was created by Pat Cross working 
 at NASA Langley Research Center, Internal Operations Group,
 Aerospace Electronics Systems Division, Remote Sensing 
 Technology Branch. phone:(757)864-1633   fax:(757)864-7894 
     e-mail p.l.cross@larc.nasa.gov 
     homepage http://aesd.larc.nasa.gov/laser/dbmain.htm
  EOH     (1X,F11.4)                                                   
   551.         
     39.2140    
     37.5755    
     39.2257    
     54.8730    
     65.5997    
     50.7658    
     35.9608    
     26.1086    
     37.6165    
     59.0298    
     38.4505    
     24.4899    
     53.2778    
     32.7142    
     46.7010    
     54.9430    
     47.5360    
     40.1358    
     59.0821    
     48.3764    
     47.5592    
     52.5061    
     65.7044    
     69.8372    
     92.1696    
     84.7257    
     75.6365    
     81.4287    
    105.4538    
     91.3702    
     79.7924    
     83.1060    
     81.4574    
     65.7678    
     83.9501    
     98.0319    
     71.5638    
     93.9005    
     98.8775    
    108.0060    
     78.1961    
     78.2018    
     99.7294    
    106.3695    
     96.4257    
    103.0630    
    106.3866    
    125.4986    
    116.3606    
    123.0147    
    103.0914    
    127.1848    
    141.3463    
    163.0536    
    169.7493    
    180.6384    
    178.1311    
    190.7101    
    174.7930    
    177.3104    
    191.5662    
    190.7327    
    211.7402    
    224.3750    
    210.0689    
    194.1117    
    206.7171    
    228.6115    
    212.6153    
    221.8808    
    225.2566    
    224.4199    
    228.6395    
    225.2734    
    213.4899    
    257.3764    
    275.1750    
    270.9402    
    302.3800    
    321.9916    
    333.1010    
    319.4422    
    318.5949    
    367.3862    
    372.5452    
    373.4102    
    376.8539    
    408.7359    
    426.8930    
    430.3610    
    430.3665    
    488.6028    
    476.4038    
    474.6671    
    501.7177    
    521.8507    
    527.9927    
    549.0756    
    570.2167    
    554.3649    
    594.0762    
    610.0217    
    607.3682    
    647.3584    
    667.8816    
    699.2174    
    690.2578    
    729.7871    
    731.5943    
    737.0064    
    751.4492    
    806.7493    
    808.5743    
    805.8504    
    827.7192    
    837.7665    
    840.5129    
    854.2382    
    875.3292    
    922.2986    
    926.9243    
    934.3278    
    952.8593    
    992.8500    
   1013.3948    
   1055.5867    
   1049.9532    
   1116.9498    
   1155.9105    
   1174.9918    
   1211.3730    
   1245.0375    
   1314.7573    
   1331.3168    
   1387.0928    
   1450.2091    
   1494.9054    
   1565.9628    
   1602.2502    
   1649.8862    
   1696.8005    
   1758.4293    
   1799.7968    
   1884.2565    
   1938.9791    
   2013.2700    
   2078.6082    
   2173.8660    
   2240.6067    
   2285.7983    
   2368.0479    
   2461.3718    
   2561.5862    
   2619.1233    
   2695.7444    
   2784.9424    
   2912.3242    
   2982.2783    
   3070.0229    
   3169.9619    
   3259.9150    
   3367.4985    
   3441.7952    
   3546.7839    
   3613.6426    
   3681.0940    
   3785.4270    
   3874.8420    
   3966.7026    
   4031.8132    
   4160.8970    
   4305.1816    
   4399.5112    
   4543.9810    
   4694.2891    
   4902.0396    
   5110.8218    
   5332.1094    
   5587.3096    
   5876.1768    
   6174.6240    
   6519.9541    
   6918.2754    
   7334.3540    
   7781.3970    
   8251.5625    
   8763.1426    
   9217.4746    
   9587.1182    
   9969.5977    
  10223.1387    
  10423.8516    
  10554.1006    
  10620.0752    
  10643.3057    
  10700.0127    
  10774.0313    
  10944.9805    
  11052.9365    
  11158.8926    
  11212.4326    
  11162.4600    
  10969.2480    
  10656.6553    
  10188.7041    
   9656.9209    
   9108.2012    
   8520.7236    
   8010.6133    
   7537.0391    
   7072.5669    
   6707.7451    
   6418.4761    
   6139.8242    
   5917.2612    
   5727.0791    
   5527.9795    
   5367.0669    
   5219.2471    
   5090.2261    
   4957.0723    
   4838.5806    
   4723.4331    
   4569.5820    
   4439.3076    
   4305.4604    
   4200.9102    
   4068.3689    
   3962.8750    
   3877.8884    
   3807.3357    
   3692.0696    
   3662.8655    
   3620.5842    
   3617.9546    
   3589.0337    
   3544.5505    
   3561.5354    
   3560.2327    
   3562.8525    
   3549.7910    
   3569.4045    
   3617.9949    
   3652.3269    
   3724.1279    
   3764.3149    
   3897.0828    
   4026.6506    
   4144.3354    
   4333.0317    
   4568.2246    
   4865.0776    
   5182.0986    
   5562.1240    
   5998.1362    
   6580.4170    
   7171.0176    
   7688.8799    
   8162.7310    
   8445.9805    
   8384.0420    
   8015.5801    
   7434.2676    
   6717.9087    
   6039.7520    
   5362.3340    
   4766.4404    
   4292.7021    
   3867.1858    
   3522.5688    
   3250.4302    
   3053.4607    
   2872.2102    
   2751.3882    
   2601.2849    
   2489.2051    
   2404.5352    
   2335.2478    
   2299.7351    
   2257.7776    
   2255.5801    
   2221.5332    
   2186.5474    
   2121.3752    
   2109.4915    
   2132.2095    
   2125.7178    
   2085.7854    
   2091.1746    
   2089.0254    
   2099.8081    
   2098.7341    
   2128.9944    
   2136.5820    
   2151.7756    
   2166.9990    
   2180.0723    
   2182.2581    
   2195.3577    
   2207.3862    
   2195.3672    
   2222.7266    
   2221.6357    
   2236.9998    
   2250.1948    
   2266.7190    
   2275.5491    
   2240.3145    
   2270.0422    
   2254.6204    
   2293.2500    
   2293.2549    
   2340.9834    
   2320.9744    
   2305.4492    
   2260.1553    
   2217.3206    
   2083.7776    
   1948.3129    
   1795.5105    
   1627.4581    
   1492.8563    
   1376.2712    
   1264.3473    
   1137.8789    
   1058.4835    
   1010.6832    
    942.7809    
    868.1403    
    822.4314    
    788.7842    
    737.2372    
    699.4793    
    687.8337    
    669.0556    
    663.7026    
    629.8619    
    636.9791    
    594.4064    
    570.5654    
    604.1523    
    603.2713    
    605.0472    
    574.1124    
    588.2456    
    601.5195    
    581.1876    
    602.4140    
    614.8256    
    621.9292    
    655.7443    
    678.9688    
    688.8189    
    737.3415    
    760.8178    
    798.8917    
    788.0003    
    828.9474    
    862.7823    
    863.7036    
    917.0504    
    954.9904    
    901.3862    
    929.9966    
    933.7003    
    911.5385    
    885.7636    
    799.8569    
    735.6096    
    720.3104    
    675.4809    
    623.8084    
    579.5440    
    548.7128    
    510.1300    
    455.2228    
    453.4909    
    459.5759    
    437.8875    
    410.2151    
    370.6095    
    368.0381    
    374.0550    
    313.2982    
    333.7874    
    324.3963    
    327.8162    
    289.4875    
    303.9508    
    289.4967    
    268.2883    
    269.1399    
    241.2309    
    227.7381    
    262.3777    
    222.6922    
    198.3103    
    217.6492    
    187.4127    
    155.6265    
    164.8201    
    172.3510    
    153.9710    
    101.5722    
    138.1378    
    148.9780    
    115.6907    
    143.9842    
    117.3612    
     99.1133    
     94.9755    
     84.2212    
    109.9070    
    116.5533    
     98.3073    
     94.9983    
    108.2660    
    108.2705    
    119.8991    
    119.9036    
     91.7088    
     76.0009    
    120.7483    
     95.0346    
     64.4574    
    100.8433    
     90.9086    
    136.5764    
    109.9796    
     47.1774    
     82.6537    
     84.3119    
     60.3701    
     66.9730    
     47.1999    
     26.6567    
     17.6385    
     86.8203    
     78.5563    
      1.1803    
     20.1162    
     34.0745    
     74.4432    
     22.5902    
     63.7225    
     99.2760    
     58.7845    
     52.1977    
     64.5654    
     72.8230    
     61.2754    
     92.6763    
     83.5789    
     83.5833    
     63.7672    
     30.8514    
     35.7846    
     58.0092    
     48.9532    
     61.3155    
     42.3794    
     21.8500    
     96.8662    
     77.0150    
     81.1519    
     82.8101    
     16.1326    
     22.6970    
     58.0580    
     44.0647    
     41.6011    
     29.2803    
     30.9267    
     17.8032    
     35.8643    
     12.0751    
     40.8056    
     50.6836    
     58.9264    
     54.8105    
     49.0504    
     25.2200    
     29.3287    
     52.3571    
     55.6564    
     38.3787    
     38.3831    
     53.1983    
     63.9172    
     56.5019    
      4.2249    
     53.2158    
     44.1656    
      5.6038    
     48.2884    
     54.8805    
     35.9607    
     40.0751    
     41.7238    
     37.6177    
     34.3350    
     59.0269    
     35.1654    
     63.9826    
     59.0399    
     19.5827    
     13.0299    
     54.1087    
     50.8188    
     53.2940    
      5.6776    
     14.6905    
     72.2738    
     29.4636    
     10.6071    
     50.0261    
     15.5312    
     14.7164    
      0.8330    
      5.7164    
     56.6363    
     63.2354    
     30.3231    
     61.5950    
     13.9270    
     39.3738    
     50.0734    
     69.0362    
     74.8200    
     69.0448    
     44.3299    
     37.7557    
     69.0576    
     15.6042    
     27.0906    
     57.5247    
     49.2928    
     32.8515    
     23.8257    
     31.2171    
     71.5681    
     27.9414    
      1.7233    
     24.6671    
     79.0193    
     12.9744    
      5.0132    
     69.9470    
     56.7558    
     19.7712    
     69.9597    
