  11100 11  1   BR82     POSU   BMW  .000 U SI 022092 00.01   1        
  PROGRAM LAMBDA-9   VERSION 02.31                                     
  USER BMW DATE & TIME  1992 02 24 09.30 57.41    4.3900    295K S     
 AU1 TM 300     0     0 YLF             1.000000 - 1.400000 .00020     
 FILE NAME                                ON PC = BR82.DX              
 NO_POINTS  =  2001.    pts   DATA_INTV =  .000200 ˆm                  
 MIN_LAMBDA =  1.000000 ˆm     MIN_DATA =    .21450                    
 MAX_LAMBDA =  1.400000 ˆm     MAX_DATA =    .88030                    
 SCANSPEED  = 60.000000 NM/MIN SLITWIDTH=   .00000 ˆm                  
  RESP TIME =  1.0      sec SENSITIVITY = 5          DATE=92/02/20     
 HORIZONTAL POL. (E PERPENDICULAR TO C-AXIS)                           
  This spectra is part of Database LASERS
 Database LASERS was created by Pat Cross working 
 at NASA Langley Research Center, Internal Operations Group,
 Aerospace Electronics Systems Division, Remote Sensing 
 Technology Branch. phone:(757)864-1633   fax:(757)864-7894 
     e-mail p.l.cross@larc.nasa.gov 
     homepage http://aesd.larc.nasa.gov/laser/dbmain.htm
  EOH     (1X,F11.4)                                                   
  2001.         
    253.5757    
    252.6841    
    259.8480    
    265.2267    
    261.6454    
    259.8564    
    265.2351    
    261.6537    
    254.4932    
    247.3394    
    236.6204    
    233.9446    
    262.5632    
    265.2547    
    261.6732    
    258.0935    
    259.8871    
    269.7481    
    261.6844    
    272.4444    
    274.2418    
    262.5882    
    262.5910    
    250.9558    
    255.4329    
    263.4955    
    264.3945    
    269.7759    
    250.9697    
    242.9260    
    239.3551    
    238.4646    
    237.5742    
    236.6844    
    240.2590    
    235.7970    
    232.2294    
    217.0775    
    208.1794    
    228.6691    
    238.4895    
    245.6404    
    234.9235    
    244.7520    
    255.4883    
    242.0766    
    238.5061    
    242.0821    
    245.6598    
    240.3005    
    244.7713    
    247.4559    
    240.3088    
    268.9509    
    267.1608    
    268.9564    
    264.4774    
    258.2098    
    259.1082    
    242.1151    
    240.3308    
    236.7617    
    231.4087    
    246.5947    
    249.2804    
    243.9186    
    239.4544    
    230.5301    
    236.7809    
    228.7517    
    235.0005    
    232.3259    
    228.7600    
    243.0473    
    248.4134    
    251.0992    
    252.8916    
    263.6388    
    269.0195    
    243.0637    
    234.1351    
    220.7617    
    218.0915    
    217.2040    
    205.6378    
    217.2094    
    201.1988    
    212.7631    
    212.7659    
    208.3194    
    220.7863    
    222.5709    
    229.7067    
    243.9952    
    240.4238    
    248.4707    
    239.5364    
    235.9671    
    237.7554    
    232.4023    
    228.8363    
    225.2721    
    230.6256    
    216.3678    
    229.7393    
    234.2032    
    234.2059    
    237.7798    
    239.5690    
    237.7852    
    234.2168    
    236.8981    
    231.5451    
    221.7394    
    228.8743    
    217.2910    
    215.5124    
    218.1866    
    241.3824    
    253.9030    
    235.1366    
    235.1393    
    228.0039    
    214.6409    
    221.7691    
    222.6631    
    218.2109    
    210.2020    
    203.9791    
    213.7672    
    208.4305    
    210.2128    
    214.6652    
    210.2182    
    213.7807    
    209.3337    
    205.7787    
    193.3426    
    212.0111    
    210.2343    
    190.6879    
    196.0170    
    207.5737    
    218.2567    
    217.3691    
    230.7417    
    235.2066    
    215.5959    
    228.0739    
    228.0766    
    216.4945    
    205.8189    
    218.2808    
    214.7215    
    206.7164    
    219.1797    
    230.7712    
    219.1850    
    229.8848    
    232.5640    
    239.7089    
    239.7116    
    220.9805    
    223.6565    
    217.4226    
    222.7704    
    220.1001    
    217.4306    
    225.4524    
    216.5453    
    222.7838    
    220.1134    
    216.5533    
    221.0098    
    221.9031    
    229.9301    
    226.3654    
    229.9355    
    218.3502    
    220.1347    
    217.4652    
    217.4679    
    215.6893    
    212.1313    
    188.1436    
    201.4651    
    207.6912    
    207.6938    
    199.6956    
    204.1422    
    206.8123    
    213.0427    
    214.8254    
    213.0480    
    211.2710    
    200.6028    
    213.0559    
    219.2914    
    199.7221    
    208.6147    
    207.7282    
    202.3959    
    213.9620    
    215.7449    
    211.2974    
    213.9700    
    230.0123    
    234.4761    
    225.5585    
    234.4814    
    235.3768    
    234.4867    
    230.9198    
    231.8148    
    242.5321    
    230.0360    
    230.0387    
    222.9082    
    210.4444    
    215.7871    
    207.7810    
    212.2317    
    212.2343    
    222.0327    
    222.9266    
    215.8029    
    235.4189    
    258.6665    
    246.1439    
    229.1807    
    219.3784    
    216.7092    
    204.2556    
    213.1534    
    218.4980    
    203.3743    
    209.6018    
    216.7249    
    208.7173    
    190.0628    
    199.8326    
    214.0645    
    207.8387    
    220.3034    
    224.7614    
    222.0903    
    222.9843    
    222.9869    
    227.4470    
    220.3190    
    233.6968    
    236.3772    
    231.9170    
    239.0611    
    234.5994    
    218.5528    
    219.4463    
    223.0130    
    244.4343    
    240.8629    
    235.5078    
    238.1887    
    221.2440    
    215.9022    
    218.5763    
    227.4913    
    211.4598    
    233.7411    
    247.1419    
    221.2622    
    228.3957    
    228.3983    
    231.9691    
    224.8369    
    234.6514    
    231.0845    
    217.7172    
    228.4138    
    240.0193    
    217.7250    
    211.4961    
    221.2933    
    226.6436    
    226.6461    
    240.0349    
    232.8952    
    205.2853    
    213.2939    
    223.0934    
    223.0960    
    215.0817    
    217.7560    
    215.0869    
    208.8602    
    216.8731    
    222.2202    
    215.0972    
    217.7715    
    199.9832    
    199.9857    
    183.1257    
    201.7684    
    217.7844    
    217.7869    
    216.0083    
    221.3553    
    224.9222    
    223.1424    
    221.3630    
    209.7912    
    184.9249    
    194.6878    
    202.6850    
    192.0299    
    216.9246    
    230.2960    
    228.5144    
    208.0329    
    199.1460    
    202.7030    
    203.5946    
    213.3814    
    215.1641    
    217.8383    
    221.4041    
    225.8625    
    224.0825    
    214.2870    
    216.9604    
    220.5258    
    215.1845    
    215.1871    
    208.0713    
    209.8527    
    214.3049    
    225.8881    
    227.6742    
    207.1946    
    214.3152    
    215.2075    
    210.7604    
    224.1209    
    218.7771    
    199.2100    
    187.6725    
    199.2151    
    208.9962    
    202.7746    
    211.6708    
    200.1138    
    193.0117    
    193.9021    
    207.2328    
    210.7935    
    185.0374    
    178.8355    
    192.1397    
    196.5810    
    193.9199    
    182.3905    
    183.2791    
    175.3075    
    181.5116    
    186.8337    
    165.5799    
    174.4320    
    184.1811    
    187.7310    
    183.2995    
    178.8710    
    187.7386    
    191.2902    
    201.0610    
    199.2862    
    190.4102    
    191.3003    
    192.1905    
    185.0958    
    178.8938    
    190.4229    
    202.8584    
    201.0837    
    201.0863    
    201.0888    
    205.5358    
    207.3165    
    209.9874    
    201.9877    
    185.1236    
    193.1105    
    189.5637    
    182.4715    
    189.5688    
    205.5585    
    210.0075    
    194.0135    
    195.7921    
    194.9065    
    178.0582    
    188.6991    
    180.7213    
    175.4086    
    169.2146    
    178.9569    
    192.2611    
    196.7024    
    201.1467    
    191.3810    
    186.9474    
    196.7124    
    184.2921    
    179.8632    
    187.8445    
    192.2837    
    193.1734    
    184.3047    
    184.3072    
    178.9920    
    188.7468    
    182.5419    
    178.9995    
    189.6417    
    190.5311    
    191.4211    
    196.7500    
    199.4171    
    209.1982    
    202.9766    
    193.2085    
    194.0989    
    210.9877    
    205.6539    
    189.6692    
    193.2210    
    192.3363    
    178.1510    
    179.0396    
    192.3438    
    205.6714    
    197.6758    
    205.6763    
    208.3466    
    197.6833    
    199.4621    
    201.2419    
    203.9105    
    203.9130    
    208.3615    
    227.9566    
    224.3930    
    239.5627    
    229.7475    
    212.8221    
    205.7087    
    204.8220    
    209.2705    
    203.9379    
    216.3952    
    221.7421    
    217.2907    
    213.7321    
    213.7346    
    215.5171    
    198.6239    
    187.0872    
    195.9646    
    194.1910    
    208.4112    
    204.8568    
    200.4153    
    196.8646    
    198.6437    
    197.7578    
    195.0963    
    207.5390    
    211.9896    
    198.6561    
    201.3238    
    204.8815    
    199.5515    
    199.5540    
    196.8918    
    190.6804    
    180.9283    
    188.0238    
    196.9017    
    190.6903    
    192.4679    
    201.3510    
    204.0196    
    193.3626    
    189.8157    
    194.2554    
    198.6981    
    200.4771    
    196.9264    
    202.2595    
    199.5959    
    212.0464    
    212.0489    
    195.1630    
    220.0664    
    224.5242    
    224.5267    
    234.3399    
    228.9891    
    224.5341    
    218.3000    
    222.7563    
    221.8681    
    206.7384    
    215.6382    
    208.5223    
    218.3148    
    219.2075    
    212.9778    
    213.8704    
    195.2048    
    205.8693    
    206.7606    
    189.8871    
    194.3267    
    199.6574    
    190.7813    
    181.0292    
    192.5614    
    206.7777    
    205.8914    
    212.1201    
    209.4531    
    206.7875    
    209.4580    
    205.9036    
    212.1324    
    206.7973    
    202.3553    
    204.1351    
    197.9178    
    192.5932    
    201.4763    
    206.8120    
    200.5925    
    228.1884    
    230.8664    
    221.0628    
    220.1742    
    214.8340    
    219.2882    
    211.2791    
    201.5007    
    212.1739    
    207.7282    
    211.2888    
    210.4014    
    209.5141    
    223.7626    
    228.2226    
    223.7675    
    226.4439    
    216.6460    
    218.4297    
    212.2007    
    227.3454    
    237.1620    
    236.2715    
    241.6317    
    243.4212    
    241.6365    
    237.1741    
    249.6856    
    250.5825    
    233.6111    
    243.4358    
    255.9576    
    262.2274    
    258.6477    
    253.2805    
    249.7050    
    253.2853    
    265.8233    
    266.7221    
    263.1403    
    257.7693    
    267.6253    
    276.5970    
    261.3582    
    265.8403    
    262.2589    
    254.2044    
    261.3679    
    265.8499    
    262.2686    
    252.4244    
    257.7959    
    272.1352    
    274.8286    
    274.8311    
    277.5255    
    276.6308    
    287.4095    
    306.3077    
    318.0316    
    300.9091    
    293.7125    
    296.4136    
    298.2161    
    305.4218    
    309.0284    
    309.9317    
    312.6385    
    312.6410    
    316.2510    
    309.9413    
    312.6482    
    310.8477    
    301.8409    
    307.2475    
    318.9721    
    340.6641    
    337.0473    
    347.0066    
    349.7267    
    342.4837    
    347.9198    
    351.5461    
    366.0634    
    362.4345    
    361.5292    
    366.0706    
    356.9982    
    363.3519    
    364.2622    
    362.4489    
    361.5436    
    359.7314    
    387.0013    
    389.7357    
    406.1515    
    407.9796    
    398.8570    
    396.1241    
    388.8368    
    398.8642    
    405.2530    
    418.0443    
    420.7899    
    405.2602    
    412.5680    
    412.5704    
    410.7455    
    403.4447    
    407.0976    
    413.4938    
    408.9288    
    429.0476    
    441.8791    
    425.3908    
    416.2473    
    423.5652    
    436.3880    
    435.4738    
    438.2257    
    440.0614    
    434.5645    
    451.0774    
    460.2678    
    438.2376    
    442.8251    
    457.5174    
    461.1969    
    456.6031    
    454.7681    
    465.8030    
    459.3679    
    465.8077    
    474.0947    
    468.5730    
    465.8149    
    465.8173    
    470.4209    
    458.4652    
    463.0644    
    472.2697    
    469.5103    
    495.3297    
    505.4987    
    506.4255    
    501.8049    
    509.2061    
    499.9607    
    482.4245    
    492.5761    
    504.5904    
    496.2744    
    500.8970    
    504.5975    
    504.5999    
    496.2839    
    494.4393    
    494.4416    
    495.3677    
    508.3116    
    524.9857    
    521.2800    
    507.3934    
    526.8472    
    540.7742    
    524.0702    
    524.9999    
    531.4955    
    547.2904    
    555.6672    
    551.9465    
    555.6719    
    537.0773    
    538.9376    
    545.4452    
    554.7503    
    564.9991    
    548.2419    
    544.5248    
    552.8980    
    562.2128    
    579.0056    
    558.4913    
    565.9479    
    570.6125    
    578.0811    
    592.1024    
    584.6247    
    573.4208    
    576.2236    
    585.5665    
    582.7656    
    579.9651    
    594.9256    
    613.6667    
    609.9175    
    604.2963    
    615.5505    
    635.2834    
    637.1673    
    643.7596    
    656.9595    
    674.9085    
    684.3736    
    678.6970    
    691.0099    
    688.1692    
    697.6514    
    711.8947    
    715.6993    
    746.1880    
    745.2362    
    747.1475    
    750.9698    
    770.1003    
    784.4808    
    774.8949    
    768.1926    
    777.7748    
    783.5313    
    788.3314    
    806.5944    
    823.9368    
    838.4196    
    847.1232    
    859.7123    
    846.1603    
    859.7170    
    882.0386    
    909.3013    
    912.2307    
    928.8382    
    932.7530    
    924.9324    
    942.5474    
    953.3333    
    960.2057    
    959.2261    
    969.0524    
    999.5906    
   1002.5545    
   1022.3301    
   1044.1429    
   1042.1602    
   1060.0496    
   1069.0109    
   1066.0256    
   1076.9884    
   1086.9683    
   1106.9657    
   1092.9663    
   1109.9741    
   1131.0360    
   1134.0515    
   1141.0895    
   1156.1904    
   1165.2666    
   1172.3336    
   1181.4285    
   1199.6492    
   1204.7202    
   1215.8850    
   1219.9500    
   1216.9048    
   1229.1050    
   1245.4016    
   1256.6259    
   1253.5659    
   1278.1018    
   1296.5563    
   1295.5321    
   1300.6669    
   1310.9458    
   1320.2083    
   1326.3909    
   1341.8645    
   1358.4050    
   1367.7256    
   1394.7125    
   1404.0784    
   1416.5825    
   1435.3768    
   1445.8398    
   1460.5105    
   1463.6597    
   1480.4673    
   1500.4750    
   1519.4784    
   1514.1976    
   1518.4260    
   1531.1206    
   1543.8364    
   1576.7800    
   1610.9370    
   1631.2919    
   1660.3097    
   1671.0868    
   1687.2802    
   1703.5081    
   1710.0101    
   1726.2869    
   1724.1176    
   1749.1340    
   1776.4199    
   1802.7075    
   1826.8845    
   1845.6199    
   1858.8738    
   1867.7227    
   1914.3425    
   1950.0557    
   1963.4926    
   2011.8331    
   2040.0818    
   2069.5710    
   2104.8823    
   2134.6248    
   2175.9998    
   2196.7732    
   2230.3604    
   2267.5947    
   2286.2820    
   2314.3977    
   2365.0322    
   2412.4392    
   2454.1646    
   2506.9465    
   2558.8855    
   2598.9888    
   2660.1565    
   2702.0347    
   2747.8708    
   2810.2546    
   2861.7952    
   2909.8782    
   2958.2688    
   3017.2610    
   3087.1025    
   3170.7175    
   3239.3401    
   3284.5466    
   3339.4209    
   3402.8169    
   3468.1118    
   3517.4553    
   3556.0576    
   3596.2449    
   3626.8755    
   3661.8333    
   3701.1785    
   3716.6924    
   3756.3228    
   3799.0139    
   3844.8176    
   3877.9116    
   3870.7078    
   3873.5920    
   3856.3208    
   3844.8293    
   3850.5764    
   3846.2698    
   3837.6619    
   3804.7471    
   3767.7102    
   3732.2673    
   3704.0327    
   3652.0708    
   3604.6345    
   3576.8689    
   3546.4436    
   3494.1753    
   3443.6255    
   3404.2397    
   3363.7104    
   3310.0042    
   3258.0039    
   3232.7998    
   3176.0637    
   3111.9236    
   3056.0803    
   3014.7881    
   2958.3745    
   2906.1819    
   2861.9099    
   2825.4224    
   2802.8638    
   2766.6582    
   2726.9065    
   2688.5947    
   2639.4429    
   2586.9573    
   2537.2485    
   2508.3022    
   2479.4658    
   2466.2869    
   2455.5210    
   2409.0391    
   2377.0254    
   2340.4351    
   2300.5054    
   2285.2942    
   2275.9497    
   2251.4717    
   2222.4331    
   2187.7327    
   2173.8979    
   2152.0430    
   2135.9802    
   2114.2341    
   2091.4106    
   2070.9282    
   2048.2346    
   2049.3696    
   2030.1306    
   2007.5583    
   2009.8148    
   1985.0547    
   1964.8568    
   1955.8983    
   1948.0687    
   1943.5992    
   1921.2825    
   1911.2628    
   1912.3776    
   1900.1465    
   1909.0439    
   1909.0461    
   1885.7213    
   1877.9637    
   1897.9360    
   1899.0494    
   1882.4039    
   1879.0811    
   1892.3923    
   1884.6281    
   1896.8386    
   1903.5081    
   1911.2970    
   1919.0931    
   1941.4080    
   1936.9423    
   1930.2480    
   1936.9469    
   1947.0057    
   1951.4818    
   1945.8921    
   1967.1650    
   1995.2458    
   2007.6357    
   2034.7356    
   2050.5896    
   2048.3257    
   2071.0239    
   2084.6768    
   2102.9172    
   2115.4844    
   2156.7529    
   2193.6257    
   2214.4468    
   2237.6484    
   2274.9170    
   2298.3037    
   2326.4626    
   2364.1716    
   2411.5706    
   2435.3833    
   2485.6306    
   2530.1741    
   2574.9805    
   2627.3862    
   2688.7813    
   2753.1626    
   2819.3489    
   2894.9800    
   2972.6509    
   3027.8848    
   3114.7539    
   3198.6721    
   3291.5325    
   3392.3015    
   3483.4670    
   3579.8989    
   3711.3491    
   3843.6792    
   3968.1362    
   4113.9780    
   4277.8594    
   4428.2842    
   4583.3311    
   4748.0752    
   4928.0537    
   5110.7061    
   5311.7803    
   5539.8286    
   5765.6890    
   6006.1040    
   6254.3794    
   6556.0513    
   6887.3306    
   7180.0801    
   7549.7676    
   7867.3354    
   8211.5137    
   8588.1064    
   9006.9873    
   9360.7568    
   9660.4619    
   9978.9229    
  10224.3574    
  10406.1162    
  10581.8662    
  10697.7949    
  10683.6504    
  10627.3301    
  10578.3906    
  10392.5166    
  10174.6504    
   9972.5078    
   9663.5781    
   9378.6191    
   9109.7100    
   8880.5898    
   8564.0566    
   8224.3281    
   7975.4395    
   7736.8477    
   7475.3613    
   7191.2881    
   6926.0723    
   6667.7266    
   6466.3867    
   6258.4028    
   6071.3472    
   5862.5283    
   5699.5122    
   5521.9976    
   5338.0464    
   5194.3721    
   5048.3174    
   4919.8901    
   4787.0952    
   4669.3740    
   4536.1343    
   4382.0454    
   4267.3589    
   4185.8447    
   4081.4634    
   4009.2422    
   3934.7952    
   3868.2681    
   3778.0896    
   3708.6833    
   3623.1575    
   3539.9631    
   3471.3245    
   3415.5000    
   3376.2617    
   3310.4187    
   3253.1050    
   3212.0532    
   3165.9688    
   3137.1450    
   3078.5239    
   3008.7703    
   2958.7888    
   2912.9424    
   2877.4751    
   2810.7883    
   2738.4761    
   2691.4700    
   2641.0776    
   2591.0168    
   2527.9958    
   2465.4941    
   2415.3855    
   2367.9683    
   2325.5447    
   2281.0193    
   2249.5422    
   2212.4036    
   2162.7817    
   2130.6443    
   2108.9146    
   2069.0464    
   2007.9421    
   1971.9631    
   1924.9983    
   1877.2141    
   1851.7795    
   1825.3286    
   1792.3945    
   1760.6930    
   1737.8199    
   1706.3450    
   1665.2976    
   1640.5620    
   1618.0468    
   1587.0636    
   1549.8374    
   1522.3018    
   1495.9192    
   1464.3805    
   1417.3149    
   1388.1774    
   1347.7775    
   1337.4548    
   1321.9957    
   1297.3254    
   1255.3628    
   1227.8562    
   1195.3831    
   1152.9719    
   1133.8644    
   1122.8252    
   1104.7941    
   1099.7950    
   1070.8524    
   1066.8707    
   1050.9592    
   1026.1616    
   1003.4203    
    978.7779    
    976.8116    
    980.7507    
    978.7845    
    965.0207    
    952.2620    
    944.4227    
    912.1619    
    901.4402    
    883.9268    
    867.4236    
    854.8278    
    851.9260    
    836.4582    
    821.0213    
    819.0961    
    800.8099    
    785.4453    
    784.4885    
    786.4094    
    781.6151    
    777.7823    
    772.0361    
    766.2942    
    747.1797    
    745.2732    
    727.1638    
    709.0980    
    702.4537    
    696.7642    
    692.9741    
    677.8265    
    692.0311    
    694.8770    
    676.8871    
    670.2716    
    659.8860    
    655.1709    
    650.4594    
    640.1008    
    636.3389    
    609.1074    
    606.2980    
    601.6161    
    601.6184    
    602.5573    
    593.1994    
    583.8530    
    598.8184    
    601.6295    
    591.3373    
    591.3395    
    594.1478    
    579.1961    
    558.6841    
    557.7550    
    545.6630    
    542.8770    
    552.1774    
    563.3528    
    559.6288    
    552.1840    
    553.1168    
    556.8421    
    552.1907    
    547.5421    
    546.6149    
    548.4765    
    537.3274    
    530.8323    
    534.5467    
    534.5489    
    543.8396    
    541.0537    
    532.6995    
    526.2084    
    517.8699    
    521.5779    
    512.3193    
    511.3959    
    528.0739    
    543.8595    
    541.0736    
    539.2182    
    545.7249    
    543.8683    
    533.6542    
    533.6564    
    541.0869    
    536.4456    
    528.0959    
    529.0258    
    528.1003    
    518.8339    
    512.3547    
    511.4312    
    508.6578    
    506.8103    
    511.4379    
    508.6644    
    505.8920    
    505.8942    
    494.8075    
    488.3488    
    473.6039    
    451.5384    
    452.4590    
    443.2843    
    442.3693    
    434.1230    
    441.4565    
    451.5516    
    450.6361    
    442.3803    
    436.8825    
    429.5572    
    423.1537    
    428.6460    
    429.5638    
    423.1603    
    423.1625    
    410.3696    
    399.4215    
    403.0720    
    406.7243    
    400.3401    
    390.3173    
    412.2091    
    417.6940    
    419.5243    
    411.3028    
    406.7397    
    396.7085    
    398.5342    
    404.0087    
    396.7151    
    376.6901    
    383.9689    
    389.4328    
    373.0609    
    360.3522    
    370.3398    
    383.0698    
    378.5242    
    377.6170    
    373.0741    
    354.0179    
    365.8129    
    367.6307    
    351.3058    
    335.9202    
    346.7809    
    360.3785    
    356.7529    
    353.1289    
    342.2636    
    331.4133    
    337.7441    
    335.0334    
    312.4656    
    311.5662    
    324.1978    
    317.8827    
    306.1668    
    313.3782    
    303.4696    
    281.8927    
    289.9800    
    296.2763    
    298.9775    
    289.0877    
    285.4959    
    270.2431    
    259.4952    
    272.0404    
    282.8104    
    263.9792    
    263.0856    
    266.6712    
    266.6734    
    263.0922    
    272.9526    
    264.8883    
    252.3594    
    253.2556    
    254.1524    
    244.3208    
    247.0036    
    255.0537    
    250.5837    
    238.9712    
    249.6938    
    250.5903    
    238.9778    
    235.4096    
    227.3846    
    221.1496    
    222.9336    
    230.9577    
    237.2052    
    233.6380    
    229.1811    
    231.8585    
    222.9467    
    211.3759    
    205.1540    
    209.6017    
    206.0473    
    216.7240    
    216.7262    
    206.9430    
    196.2844    
    186.5275    
    176.7830    
    175.0147    
    183.8747    
    190.9708    
    182.1069    
    167.0598    
    169.7160    
    179.4551    
    174.1446    
    170.6069    
    173.2637    
    171.4962    
    184.7830    
    181.2403    
    167.9640    
    165.3134    
    162.6637    
    165.3178    
    173.2811    
    183.9118    
    171.5158    
    146.7823    
    151.1953    
    151.1975    
    167.1013    
    160.0324    
    168.8748    
    176.8419    
    165.3418    
    166.2283    
    162.6942    
    154.7458    
    155.6311    
    153.8677    
    143.2834    
    131.8334    
    146.8149    
    155.6420    
    136.2427    
    128.3224    
    138.0090    
    145.0618    
    138.0134    
    142.4213    
    143.3052    
    126.5757    
    123.0601    
    123.9417    
    116.9124    
    112.5235    
    120.4316    
    130.1082    
    123.0731    
    120.4382    
    130.9949    
    130.1169    
    120.4447    
    120.4469    
    117.8128    
    109.0340    
    109.0362    
    109.0384    
     98.5164    
    108.1650    
    122.2204    
    116.0707    
    107.2939    
    101.1568    
    103.7894    
    109.9330    
    114.3252    
    112.5714    
     86.2787    
     87.1560    
    101.1720    
     86.2852    
     74.9215    
     82.7904    
     95.9226    
     85.4188    
     95.9269    
     97.6812    
     84.5509    
     78.4316    
     76.6861    
     75.8143    
     71.4492    
     74.9453    
     87.1886    
     71.4558    
     65.3476    
     78.4490    
     83.6977    
     76.7057    
     62.7386    
     66.2307    
     63.6154    
     70.5998    
     74.9692    
     76.7187    
     77.5949    
     88.9669    
     86.3438    
     71.4861    
     69.7417    
     78.4794    
     78.4815    
     54.9208    
     54.9229    
     62.7711    
     57.5417    
     58.4157    
     71.5056    
     67.1425    
     61.0379    
     62.7841    
     66.2762    
     62.7884    
     67.1534    
     62.7928    
     60.1787    
     61.0530    
     65.4169    
     56.6981    
     58.4439    
     59.3180    
     59.3202    
     69.7915    
     63.6847    
     61.0703    
     64.5616    
     74.1669    
     79.4121    
     78.5400    
     81.1653    
     85.5402    
     83.7931    
     82.9205    
     75.0558    
     75.0580    
     82.0523    
     79.4316    
     80.3081    
     81.1847    
     79.4381    
     84.6874    
     94.3176    
     75.9486    
     68.0912    
     69.8391    
     61.9880    
     63.7345    
     64.6092    
     52.4068    
     52.4089    
     50.6689    
     62.0010    
     72.4759    
     75.9724    
     71.6073    
     61.1374    
     76.8528    
     85.5986    
     89.9766    
     82.9788    
     86.4801    
     89.9830    
     69.8780    
     70.7534    
     80.3664    
     86.4909    
     70.7599    
     73.3819    
     76.8787    
     75.1336    
     77.7571    
     71.6440    
     65.5358    
     64.6653    
     65.5401    
     75.1466    
     76.0221    
     76.0242    
     79.5223    
     77.7765    
     70.7901    
     66.4275    
     69.0485    
     62.9419    
     73.4186    
     76.9154    
     66.4383    
     69.0593    
     59.4649    
     59.4671    
     63.8294    
     61.2151    
     55.9868    
     51.6327    
     63.8381    
     74.3159    
     69.9513    
     61.2280    
     53.3859    
     73.4509    
     72.5795    
     83.9442    
     86.5707    
     62.1132    
     59.4994    
     54.2718    
     61.2474    
     67.3564    
     68.2315    
     71.7259    
     67.3628    
     72.6032    
     73.4789    
     68.2422    
     64.7537    
     58.6511    
     65.6307    
     60.3989    
     55.1713    
     51.6887    
     56.0471    
     55.1777    
     67.3887    
     63.0281    
     56.9269    
     50.8306    
     51.7038    
     48.2229    
     52.5793    
     55.1950    
     65.6608    
     64.7903    
     56.0730    
     43.8845    
     38.6678    
     40.4093    
     54.3386    
     49.1151    
     49.1173    
     56.9591    
     54.3472    
     60.4505    
     52.6094    
     46.5166    
     38.6893    
     37.8224    
     47.3931    
     45.6547    
     43.9168    
     44.7887    
     38.7022    
     45.6633    
     53.5021    
     41.3174    
     22.2093    
     23.9466    
     34.3693    
     24.8188    
     23.9530    
     34.3758    
     40.4631    
     35.2487    
     34.3822    
     39.5998    
     40.4717    
     35.2573    
     36.9981    
     27.4443    
     24.8425    
     17.0375    
      7.5088    
      0.5874    
     19.6453    
     28.3255    
     21.3846    
     31.8032    
     42.2367    
     36.1523    
     33.5475    
     25.7336    
     22.2651    
     25.7379    
     32.6871    
     38.7730    
     21.4060    
     20.5406    
     23.1453    
     34.4359    
     30.0942    
     29.2278    
     37.0496    
     40.5296    
     37.0539    
     42.2732    
     42.2753    
     37.9297    
     37.9319    
     37.9340    
     38.8052    
     51.8606    
     52.7339    
     45.7707    
     49.2547    
     54.4824    
     44.9067    
     30.1307    
     43.1711    
     42.3032    
     41.4354    
     37.9598    
     37.0924    
     44.9217    
     33.6204    
     43.1861    
     50.1513    
     33.6268    
     31.8912    
     31.0251    
     18.8770    
     24.9518    
     34.5066    
     28.4285    
     23.2224    
     40.5982    
     46.6904    
     39.7327    
     42.3439    
     47.5669    
     42.3482    
     35.3945    
     46.7032    
     50.1877    
     32.7943    
     51.9335    
     59.7785    
     52.8089    
     51.0688    
     51.9420    
     46.7204    
     50.2048    
     56.3047    
     44.9860    
     38.0304    
     42.3803    
     58.9280    
     62.4180    
     45.8670    
     40.6496    
     40.6517    
     27.6200    
     38.0476    
     37.1802    
     24.1545    
     26.7603    
     34.5794    
     40.6667    
     37.1909    
     25.0332    
     22.4322    
     20.6991    
     25.9072    
     37.2016    
     38.0732    
     45.9034    
     50.2583    
     54.6152    
     38.0818    
     54.6194    
     45.0437    
     30.2677    
     40.6988    
     42.4402    
     41.5724    
     43.3145    
     56.3774    
     43.3188    
     32.0196    
     27.6799    
     29.4184    
     23.3444    
     37.2423    
     38.1138    
     48.5552    
     45.0758    
     47.6888    
     48.5616    
     45.0822    
     50.3075    
     59.0221    
     42.4787    
     40.7415    
     41.6130    
     42.4851    
     25.9777    
     37.2722    
     59.0370    
     19.0439    
     15.5781    
     23.3850    
     32.9376    
     25.1251    
     28.5996    
     37.2893    
     28.6038    
     32.9482    
     36.4263    
     45.9953    
     49.4793    
     52.0938    
     34.6969    
     28.6188    
     39.9166    
     37.3106    
     37.3127    
     32.9696    
     50.3673    
     45.1463    
     30.3702    
     37.3234    
     41.6728    
     19.9620    
      1.7732    
     10.4322    
     26.9099    
     13.9020    
     18.2385    
     19.1079    
     13.0423    
     13.9106    
     32.1328    
     23.4533    
     25.1913    
     34.7460    
     14.7880    
      1.8009    
      5.9795    
     12.8889    
     14.6134    
     15.6656    
     14.8008    
     20.8721    
     26.0801    
     19.1421    
     26.0844    
     34.7716    
     20.0153    
     28.6956    
      8.7535    
      4.2232    
      3.3563    
     16.5581    
     13.9596    
     17.4290    
      0.7536    
     17.1671    
     17.1650    
      5.0707    
      1.6101    
      1.8521    
     11.3775    
      8.7813    
     16.2890    
      6.7863    
     11.3860    
      1.8649    
      8.5080    
      7.6421    
     17.1394    
     16.2740    
      0.7195    
     10.5345    
      7.9386    
      9.6730    
     19.2082    
     26.1505    
     16.6114    
     26.1548    
     27.0251    
      5.8878    
      8.4781    
     12.2887    
      6.2286    
      7.6080    
      6.2328    
      9.6986    
      8.8345    
     10.5686    
      2.7793    
     11.4393    
      4.5141    
     13.1766    
     18.3792    
     16.6476    
     23.5876    
     15.7849    
      6.7160    
     14.0555    
     27.9359    
     23.5982    
     20.9979    
     22.7352    
     17.5334    
     14.9351    
     29.6850    
     30.5557    
     32.2947    
     24.4831    
     15.8126    
     11.4819    
     16.6838    
     22.7565    
      6.2925    
     14.0896    
     31.4435    
     41.0059    
     21.0319    
     23.6366    
     12.3675    
      0.6152    
      2.3424    
     15.8403    
     15.8424    
     32.3309    
     40.1553    
     27.1251    
     32.3373    
     43.6408    
     12.3888    
      3.1881    
     17.5930    
     15.8616    
     12.3973    
     33.2211    
     36.6991    
     16.7370    
     34.0964    
     18.4750    
      3.1689    
      4.6184    
     18.4814    
     21.2976    
      2.2956    
     16.7541    
     21.9591    
     44.5493    
     28.0381    
      8.9644    
      2.0416    
     21.9697    
      9.8369    
      8.9729    
     25.4469    
     30.6578    
     14.1768    
     14.1790    
     18.5154    
     27.1932    
     19.3870    
     31.5393    
     35.8851    
     29.8063    
     20.2623    
     39.3686    
     18.5325    
     16.8008    
     22.0059    
     15.9381    
      8.1430    
     28.0870    
     16.8115    
      9.8816    
     18.5495    
     28.9639    
     27.2294    
     17.6887    
     31.5754    
     25.5000    
     24.6342    
     23.7684    
     25.5064    
     29.8488    
     39.4090    
     46.3702    
     29.8552    
     30.7259    
     22.0484    
      8.1833    
     15.9828    
     28.1295    
     22.9246    
     15.1223    
     10.7920    
     15.9934    
     15.9955    
     29.0106    
     32.4862    
     30.7514    
     12.5376    
      9.0749    
     24.6809    
     27.2867    
     22.9501    
     24.6873    
     34.2410    
     28.1635    
     29.0340    
     28.1678    
     21.2276    
      9.0962    
     18.6302    
     16.0316    
     10.8345    
     13.4361    
      3.0473    
      0.4110    
      5.6478    
      1.2718    
      4.7282    
     16.8182    
     18.5417    
