  11100 11  1   BR76     POSU   BMW  .000 U SI 022092 00.01   1        
  PROGRAM LAMBDA-9   VERSION 02.31                                     
  USER BMW DATE & TIME  1992 02 24 09.14 37.54    4.3900    295K S     
 AU1 TM 300     0     0 YLF             1.500000 - 2.000000 .00020     
 FILE NAME                                ON PC = BR76.DX              
 NO_POINTS  =  2501.    pts   DATA_INTV =  .000200 ˆm                  
 MIN_LAMBDA =  1.500000 ˆm     MIN_DATA =    .52760                    
 MAX_LAMBDA =  2.000000 ˆm     MAX_DATA =    .93380                    
 SCANSPEED  = 60.000000 NM/MIN SLITWIDTH=   .00000 ˆm                  
  RESP TIME =  1.0      sec SENSITIVITY = 5          DATE=92/02/20     
 HORIZONTAL POL. (E PERPENDICULAR TO C-AXIS)                           
  This spectra is part of Database LASERS
 Database LASERS was created by Pat Cross working 
 at NASA Langley Research Center, Internal Operations Group,
 Aerospace Electronics Systems Division, Remote Sensing 
 Technology Branch. phone:(757)864-1633   fax:(757)864-7894 
     e-mail p.l.cross@larc.nasa.gov 
     homepage http://aesd.larc.nasa.gov/laser/dbmain.htm
  EOH     (1X,F11.4)                                                   
  2501.         
     48.3722    
     27.9641    
     23.0756    
     23.0778    
     38.5768    
     37.7624    
     27.9748    
     40.2166    
     33.6884    
     24.7206    
     36.1407    
     27.1700    
     14.1395    
      7.6342    
     23.1012    
     36.9677    
     32.0734    
     35.3393    
     31.2623    
     18.2248    
     24.7440    
     29.6373    
     36.1662    
     34.5364    
     24.7525    
     28.8302    
     32.0947    
     51.7005    
     57.4298    
     43.5302    
     33.7352    
     37.0018    
     49.2580    
     45.1731    
     44.3580    
     50.0817    
     59.0837    
     46.8159    
     46.0011    
     43.5515    
     42.7370    
     42.7391    
     37.0252    
     38.6598    
     55.0089    
     59.1029    
     65.6572    
     64.8399    
     69.7596    
     59.9303    
     58.2948    
     72.2257    
     64.0312    
     56.6645    
     53.3937    
     68.9546    
     72.2363    
     61.5847    
     64.0439    
     62.4081    
     56.6794    
     64.8697    
     64.8718    
     55.0494    
     64.8761    
     67.3364    
     60.7854    
     68.9801    
     72.2619    
     73.0838    
     60.7939    
     45.2540    
     46.8905    
     47.7101    
     46.8947    
     46.8968    
     46.8990    
     43.6324    
     32.2055    
     34.6557    
     45.2732    
     37.9243    
     46.9118    
     51.8198    
     57.5491    
     59.1881    
     50.1904    
     52.6459    
     41.2054    
     28.1516    
     37.1275    
     37.9456    
     44.4816    
     36.3175    
     42.8521    
     55.1176    
     58.3928    
     55.9398    
     55.1240    
     52.6715    
     32.2524    
     23.2865    
     33.8886    
     33.0747    
     37.9733    
     52.6843    
     51.0509    
     48.6002    
     47.7847    
     49.4221    
     40.4360    
     61.6999    
     64.1591    
     64.9806    
     55.1581    
     41.2630    
     30.6554    
     30.6576    
     42.9033    
     37.1893    
     24.1420    
     25.7744    
     27.4066    
     34.7495    
     30.6725    
     24.9678    
     30.6768    
     24.1570    
     30.6810    
     31.4989    
     32.3164    
     36.3986    
     38.0331    
     31.5075    
     41.3036    
     52.7483    
     47.0270    
     40.4936    
     44.5797    
     38.8646    
     44.5840    
     49.4904    
     45.4055    
     46.2250    
     61.7703    
     72.4262    
     71.6081    
     80.6354    
     80.6376    
     70.7945    
     60.1457    
     50.3291    
     56.0571    
     44.6117    
     46.2485    
     60.9753    
     56.0657    
     57.7049    
     56.0700    
     54.4359    
     51.9841    
     40.5449    
     54.4423    
     42.1824    
     51.9927    
     62.6343    
     65.0937    
     69.1935    
     81.5014    
     95.4740    
     88.0765    
     86.4355    
     80.6888    
     70.8457    
     65.9303    
     62.6556    
     84.8035    
     88.0915    
     72.4967    
     76.5999    
     74.1410    
     70.8628    
     67.5861    
     61.0351    
     56.1255    
     59.4016    
     68.4143    
     59.4059    
     50.4082    
     47.9577    
     50.4124    
     65.9666    
     61.8729    
     72.5287    
     63.5154    
     48.7881    
     51.2431    
     36.5396    
     43.0742    
     41.4424    
     43.0785    
     45.5316    
     42.2658    
     39.8180    
     42.2700    
     52.0803    
     66.8182    
     57.8118    
     60.2697    
     58.6342    
     70.1054    
     76.6684    
     66.0115    
     66.8332    
     60.2825    
     66.8375    
     57.8310    
     58.6513    
     66.8439    
     64.3877    
     81.6126    
     80.7936    
     72.5908    
     79.1559    
     87.3707    
     86.5510    
     75.8804    
     89.0204    
     87.3792    
     80.8108    
     82.4548    
     82.4569    
     94.7861    
    104.6645    
    101.3731    
    112.0840    
    109.6136    
    112.0883    
    103.8516    
    106.3244    
    117.0427    
    113.7460    
    124.4743    
    125.3023    
    134.3934    
    121.1786    
    115.4057    
    136.0533    
    130.2691    
    113.7631    
    100.5841    
    117.8908    
    127.7992    
    119.5455    
    126.9773    
    122.0255    
    111.3050    
    105.5396    
    123.6828    
    133.5987    
    120.3858    
    127.8185    
    125.3430    
    119.5669    
    126.1732    
    127.0009    
    135.2675    
    144.3701    
    147.6844    
    133.6201    
    119.5819    
    117.9337    
     96.5172    
     95.6966    
     94.0536    
     91.5891    
    108.0515    
    108.8773    
    127.0288    
    111.3543    
    108.0601    
    120.4308    
    101.4760    
    111.3629    
     94.8976    
    115.4893    
    113.8424    
    110.5471    
    132.8341    
    101.4910    
     82.5834    
     71.0984    
     82.5877    
     93.2724    
     92.4521    
    105.6211    
     94.9233    
     91.6363    
    103.9802    
    107.2769    
    111.3994    
     96.5794    
     89.1811    
     94.1158    
    103.9931    
    129.5649    
    118.0088    
    109.7658    
    104.0016    
    111.4187    
    117.1928    
    106.4788    
    114.7229    
     99.0735    
     94.1394    
    106.4874    
    127.1104    
    137.8578    
    128.7670    
    132.9007    
    126.2934    
    115.5666    
    134.5607    
    114.7465    
    113.9240    
    127.9558    
    132.9157    
    130.4386    
    122.1822    
    127.1383    
    113.1123    
    118.0625    
    139.5443    
    132.9307    
    146.9982    
    145.3440    
    158.6050    
    159.4362    
    152.8058    
    160.2702    
    151.1525    
    151.1547    
    151.1568    
    156.1324    
    156.1345    
    140.3997    
    149.5087    
    143.7144    
    150.3416    
    161.9512    
    163.6129    
    145.3784    
    137.9331    
    161.1300    
    155.3268    
    152.0135    
    172.7605    
    166.1180    
    163.6301    
    174.4288    
    187.7406    
    178.5900    
    158.6609    
    164.4709    
    141.2681    
    151.2063    
    170.2897    
    161.1601    
    152.8704    
    143.7617    
    161.1666    
    144.5934    
    139.6303    
    157.8551    
    140.4621    
    147.9142    
    151.2300    
    170.3134    
    165.3334    
    147.9228    
    153.7246    
    157.8723    
    152.0717    
    149.5883    
    148.7620    
    157.8809    
    156.2249    
    176.1517    
    181.1431    
    173.6626    
    166.1891    
    138.0170    
    148.7792    
    154.5816    
    167.0281    
    149.6142    
    145.4753    
    165.3743    
    152.1061    
    154.5946    
    152.1104    
    157.9154    
    154.6010    
    138.0428    
    157.0925    
    140.5289    
    143.0135    
    155.4409    
    154.6140    
    160.4208    
    145.5055    
    164.5743    
    170.3888    
    176.2077    
    184.5273    
    172.0565    
    182.8676    
    177.8789    
    182.8719    
    193.6978    
    187.0371    
    195.3690    
    182.8805    
    187.8763    
    193.7086    
    196.2107    
    202.8838    
    199.5497    
    223.7721    
    226.2841    
    223.7764    
    229.6364    
    219.5991    
    220.4375    
    216.2604    
    221.2782    
    230.4845    
    227.9754    
    248.0914    
    238.0297    
    242.2236    
    229.6580    
    217.9490    
    238.8766    
    239.7171    
    261.5457    
    253.1453    
    242.2388    
    248.1130    
    217.9641    
    225.4926    
    216.2971    
    222.9873    
    236.3842    
    243.9309    
    249.8064    
    217.1433    
    219.6531    
    216.3122    
    212.9723    
    233.8861    
    232.2130    
    234.7278    
    231.3802    
    238.9220    
    248.9891    
    242.2798    
    254.0306    
    255.7124    
    257.3951    
    254.8771    
    255.7189    
    260.7632    
    244.8109    
    261.6083    
    253.2080    
    243.1401    
    243.1423    
    232.2497    
    235.6024    
    223.0478    
    223.0500    
    228.9093    
    224.7276    
    234.7753    
    227.2421    
    244.0001    
    236.4577    
    235.6219    
    256.5980    
    239.8165    
    254.9225    
    243.1747    
    227.2594    
    226.4245    
    227.2637    
    254.9333    
    237.3174    
    224.7600    
    237.3217    
    233.9726    
    239.8403    
    233.9769    
    250.7498    
    238.1702    
    226.4483    
    235.6608    
    229.8006    
    226.4548    
    217.2579    
    231.4819    
    245.7321    
    238.1875    
    261.6927    
    249.0951    
    240.7086    
    254.9766    
    257.4989    
    259.1815    
    239.0410    
    260.8671    
    255.8271    
    234.8576    
    265.9186    
    277.7059    
    283.6075    
    269.2905    
    259.2010    
    260.0438    
    255.0048    
    283.6183    
    272.6682    
    260.8931    
    259.2140    
    269.3079    
    276.0453    
    267.6295    
    282.7908    
    269.3165    
    274.3693    
    295.4526    
    287.8591    
    285.3310    
    275.2202    
    287.8656    
    293.7751    
    281.9672    
    292.9351    
    276.9154    
    265.1338    
    277.7623    
    287.8808    
    292.1017    
    284.5115    
    302.2415    
    297.1745    
    287.8916    
    302.2480    
    293.8033    
    307.3249    
    303.0999    
    323.4154    
    307.3314    
    296.3471    
    320.8798    
    296.3515    
    290.4444    
    315.8047    
    331.0624    
    320.8907    
    302.2762    
    329.3721    
    321.7446    
    325.1370    
    335.3182    
    313.2826    
    317.5176    
    315.8264    
    332.7809    
    331.0863    
    328.5439    
    338.7297    
    308.2208    
    314.9927    
    324.3130    
    338.7384    
    342.1383    
    308.2316    
    320.0846    
    310.7738    
    326.0213    
    339.6008    
    324.3304    
    331.9648    
    345.5550    
    348.9579    
    337.0642    
    335.3682    
    353.2173    
    342.1666    
    352.3712    
    368.5546    
    379.6487    
    376.2362    
    359.1886    
    384.7796    
    377.0964    
    390.7671    
    411.3191    
    399.3268    
    407.8946    
    409.6107    
    425.0581    
    428.4968    
    429.3585    
    438.8203    
    418.1983    
    420.7753    
    421.6361    
    442.2713    
    447.4409    
    434.5319    
    433.6740    
    420.7883    
    415.6417    
    423.3689    
    424.2295    
    436.2650    
    445.7353    
    464.7093    
    463.8485    
    457.8092    
    471.6266    
    463.8550    
    467.3109    
    469.0410    
    475.0930    
    474.2304    
    478.5566    
    499.3472    
    490.6807    
    493.2824    
    491.5516    
    493.2867    
    497.6238    
    494.1580    
    505.4365    
    490.6959    
    493.2976    
    509.7848    
    508.9183    
    515.0022    
    517.6122    
    519.3538    
    509.7957    
    507.1927    
    513.2752    
    500.2540    
    508.0672    
    515.0197    
    528.0706    
    528.9436    
    509.8132    
    518.5059    
    513.2927    
    523.7292    
    530.6960    
    513.2992    
    521.1259    
    534.1873    
    553.3836    
    535.9343    
    520.2646    
    527.2282    
    509.8394    
    530.7157    
    529.8468    
    529.8490    
    545.5428    
    531.5956    
    560.3973    
    549.0409    
    561.2757    
    574.4064    
    560.4061    
    554.2902    
    550.7984    
    570.0368    
    560.4148    
    549.0583    
    563.0426    
    562.1700    
    570.9229    
    568.2988    
    573.5543    
    566.5531    
    562.1810    
    599.8831    
    603.4019    
    598.1301    
    613.0850    
    601.6501    
    600.7731    
    590.2342    
    608.6926    
    617.4997    
    606.0577    
    627.2004    
    631.6145    
    631.6166    
    628.0892    
    642.2198    
    636.9205    
    630.7427    
    650.1848    
    640.4608    
    637.8127    
    660.8161    
    667.9097    
    675.0094    
    668.8006    
    690.1194    
    677.6799    
    671.4689    
    698.1347    
    694.5762    
    715.0750    
    715.0772    
    717.7568    
    719.5449    
    701.7102    
    720.4418    
    711.5195    
    730.2753    
    741.9106    
    744.5997    
    745.4973    
    741.9171    
    776.9246    
    759.8526    
    755.3678    
    767.9396    
    758.9614    
    773.3378    
    776.0380    
    790.4468    
    785.0430    
    795.8604    
    830.2118    
    829.3084    
    820.2569    
    804.8933    
    820.2613    
    841.1025    
    837.4763    
    857.4554    
    851.0957    
    853.8237    
    875.6683    
    870.2042    
    870.2063    
    859.2870    
    862.0186    
    872.0344    
    875.6815    
    901.2468    
    898.5055    
    902.1653    
    903.0823    
    924.1522    
    927.8239    
    928.7440    
    930.5823    
    916.8264    
    928.7505    
    950.8125    
    954.4970    
    964.6362    
    968.3279    
    985.8799    
    983.1086    
   1008.1104    
   1036.9183    
   1031.3364    
   1019.2547    
   1022.0437    
   1027.6227    
   1020.1903    
   1027.6271    
   1063.0458    
   1071.4600    
   1090.1898    
   1112.7258    
   1124.0204    
   1124.9639    
   1121.2002    
   1144.7729    
   1142.8865    
   1171.2634    
   1206.4077    
   1213.0767    
   1214.0314    
   1206.4143    
   1225.4799    
   1243.6371    
   1248.4237    
   1284.8896    
   1292.5903    
   1290.6674    
   1293.5577    
   1318.6387    
   1336.0516    
   1340.8975    
   1368.0798    
   1361.2780    
   1368.0844    
   1393.4130    
   1393.4152    
   1397.3207    
   1385.6177    
   1408.0712    
   1432.5527    
   1454.1624    
   1469.9180    
   1459.0863    
   1469.9224    
   1495.5935    
   1507.4717    
   1515.4021    
   1526.3187    
   1561.1536    
   1572.1362    
   1569.1423    
   1573.1399    
   1576.1398    
   1607.1888    
   1616.2289    
   1639.3756    
   1641.3940    
   1636.3572    
   1655.5250    
   1663.6115    
   1671.7065    
   1687.9198    
   1712.3040    
   1722.4891    
   1727.5873    
   1764.3843    
   1770.5367    
   1762.3402    
   1772.5920    
   1751.0858    
   1775.6740    
   1801.3716    
   1812.7075    
   1832.3260    
   1853.0315    
   1866.5217    
   1902.9562    
   1888.3645    
   1900.8737    
   1918.6305    
   1911.3171    
   1937.4788    
   1956.3717    
   1974.2582    
   1985.8552    
   1985.8574    
   2004.8712    
   2009.1049    
   2037.7296    
   2049.4241    
   2074.9995    
   2103.8743    
   2108.1633    
   2135.0132    
   2122.1165    
   2132.8667    
   2182.5034    
   2209.6177    
   2229.2009    
   2249.9263    
   2277.2827    
   2280.5747    
   2288.2571    
   2334.5044    
   2345.5588    
   2375.4836    
   2401.0679    
   2449.1309    
   2480.5933    
   2488.4810    
   2524.6350    
   2538.2380    
   2571.2117    
   2613.4895    
   2652.5479    
   2686.0225    
   2692.9688    
   2739.4260    
   2774.4563    
   2812.0012    
   2858.0110    
   2878.1560    
   2911.4504    
   2930.5427    
   2955.6736    
   2983.2930    
   3001.3608    
   3047.3232    
   3052.1790    
   3066.7625    
   3086.2498    
   3111.9019    
   3140.0964    
   3129.0547    
   3148.7019    
   3130.2856    
   3099.6880    
   3105.8000    
   3082.6096    
   3074.0852    
   3050.9922    
   3040.0786    
   3008.6345    
   2973.7151    
   2958.1150    
   2900.7839    
   2854.5198    
   2813.2397    
   2772.1829    
   2746.4895    
   2688.4141    
   2659.5435    
   2598.6958    
   2532.6614    
   2526.9973    
   2491.9646    
   2438.0354    
   2375.5986    
   2339.0452    
   2310.3694    
   2277.4155    
   2270.8440    
   2222.8096    
   2158.8728    
   2117.9766    
   2108.3250    
   2082.6428    
   2027.2909    
   2001.8810    
   1952.3621    
   1918.8318    
   1906.2972    
   1893.7832    
   1867.7766    
   1826.3497    
   1821.1888    
   1789.2596    
   1759.5114    
   1760.5371    
   1728.8615    
   1718.6732    
   1692.2437    
   1662.8724    
   1628.5812    
   1610.4905    
   1635.6334    
   1595.4502    
   1566.4503    
   1580.4397    
   1561.4655    
   1548.5114    
   1531.6039    
   1521.6763    
   1490.9797    
   1469.2706    
   1461.3931    
   1437.8055    
   1435.8455    
   1432.9044    
   1431.9264    
   1428.0070    
   1415.2780    
   1426.0511    
   1414.3044    
   1400.6221    
   1395.7427    
   1386.9659    
   1379.1740    
   1357.7819    
   1370.4186    
   1360.7001    
   1349.0533    
   1361.6761    
   1345.1788    
   1342.2732    
   1347.1228    
   1364.6003    
   1354.8892    
   1341.3135    
   1353.9229    
   1327.7637    
   1320.0321    
   1341.3224    
   1342.2932    
   1341.3268    
   1337.4540    
   1342.2999    
   1333.5854    
   1326.8147    
   1339.3999    
   1325.8519    
   1318.1218    
   1312.3302    
   1346.1930    
   1354.9270    
   1352.0172    
   1357.8441    
   1324.9004    
   1314.2742    
   1328.7734    
   1334.5820    
   1322.9760    
   1316.2147    
   1350.0948    
   1356.8907    
   1355.9220    
   1348.1617    
   1325.8898    
   1339.4423    
   1345.2590    
   1346.2310    
   1330.7356    
   1332.6730    
   1351.0874    
   1348.1797    
   1339.4579    
   1345.2747    
   1344.3079    
   1347.2186    
   1327.8506    
   1350.1327    
   1357.8999    
   1361.7876    
   1360.8181    
   1352.0819    
   1353.0547    
   1348.2064    
   1357.9133    
   1361.8010    
   1372.4983    
   1399.7925    
   1401.7476    
   1405.6578    
   1412.5037    
   1427.1917    
   1416.4216    
   1405.6667    
   1414.4694    
   1407.6262    
   1429.1628    
   1445.8481    
   1432.1091    
   1438.9789    
   1454.7013    
   1473.4142    
   1462.5784    
   1471.4473    
   1501.0785    
   1509.0016    
   1523.8777    
   1520.9030    
   1532.8201    
   1540.7764    
   1557.7083    
   1584.6771    
   1584.6793    
   1601.7095    
   1627.8289    
   1647.9822    
   1663.1332    
   1672.2395    
   1709.7828    
   1716.9084    
   1728.1180    
   1744.4519    
   1758.7728    
   1778.2511    
   1792.6359    
   1816.3257    
   1823.5520    
   1843.1974    
   1883.6791    
   1928.5642    
   1962.1406    
   1993.7543    
   2019.1405    
   2033.9894    
   2065.9043    
   2108.6660    
   2125.8396    
   2141.9756    
   2191.6689    
   2223.1663    
   2261.3550    
   2292.0449    
   2332.7900    
   2356.0142    
   2362.6641    
   2406.0203    
   2445.1414    
   2488.9729    
   2513.8105    
   2525.1292    
   2555.7688    
   2594.5288    
   2642.6824    
   2674.9558    
   2681.8918    
   2714.3328    
   2752.7456    
   2794.8728    
   2812.4958    
   2838.4170    
   2850.2295    
   2867.9824    
   2903.6106    
   2882.2173    
   2894.0984    
   2909.5715    
   2928.6572    
   2934.6333    
   2926.2739    
   2935.8325    
   2927.4719    
   2919.1204    
   2909.5872    
   2892.9297    
   2889.3669    
   2884.6182    
   2896.5037    
   2873.9446    
   2866.8364    
   2871.5776    
   2859.7363    
   2866.8430    
   2864.4763    
   2852.6460    
   2850.2834    
   2836.1157    
   2842.0188    
   2820.7983    
   2812.5632    
   2814.9185    
   2816.0974    
   2823.1628    
   2826.6990    
   2851.4861    
   2857.4016    
   2869.2439    
   2891.7932    
   2885.8555    
   2873.9917    
   2868.0679    
   2897.7466    
   2910.8433    
   2922.7690    
   2949.0696    
   2958.6577    
   2965.8569    
   2987.4917    
   2997.1284    
   3004.3647    
   3011.6074    
   3044.2781    
   3044.2803    
   3057.6323    
   3096.6045    
   3101.4919    
   3132.0989    
   3173.9229    
   3191.2129    
   3217.2205    
   3239.5845    
   3274.5027    
   3294.5298    
   3317.1228    
   3363.7742    
   3389.1116    
   3409.4426    
   3426.0032    
   3486.1714    
   3524.8276    
   3557.1929    
   3623.6470    
   3665.6431    
   3689.3694    
   3711.8464    
   3756.9976    
   3805.0994    
   3846.7666    
   3903.5847    
   3944.4312    
   3990.9917    
   4039.2209    
   4096.1108    
   4143.6128    
   4188.5938    
   4221.0908    
   4243.7803    
   4276.5137    
   4315.1211    
   4333.7813    
   4345.2881    
   4328.0396    
   4330.9150    
   4335.2275    
   4333.7925    
   4319.4385    
   4292.2383    
   4262.2881    
   4236.7100    
   4205.5645    
   4147.8574    
   4098.9390    
   4048.9507    
   3980.0630    
   3907.7178    
   3826.6409    
   3771.7324    
   3719.8689    
   3674.9414    
   3627.6597    
   3550.8000    
   3465.7327    
   3412.0920    
   3379.0754    
   3344.9407    
   3302.1721    
   3237.2234    
   3175.2922    
   3110.1912    
   3079.6772    
   3042.0093    
   3000.9092    
   2966.0286    
   2921.7571    
   2877.7415    
   2838.6987    
   2833.9819    
   2806.9065    
   2769.3950    
   2732.0679    
   2711.1528    
   2679.8862    
   2649.8992    
   2632.6543    
   2598.2781    
   2559.5051    
   2549.2769    
   2522.0642    
   2502.8474    
   2501.7212    
   2484.8086    
   2460.0706    
   2428.7014    
   2426.4673    
   2399.6907    
   2378.5593    
   2348.6311    
   2313.3118    
   2294.6157    
   2275.9661    
   2267.2065    
   2258.4573    
   2249.7185    
   2243.1709    
   2226.8247    
   2202.9119    
   2181.2380    
   2173.6685    
   2163.9468    
   2143.4607    
   2148.8494    
   2125.1807    
   2108.0134    
   2103.7295    
   2104.8032    
   2087.6821    
   2073.8005    
   2079.1401    
   2062.0767    
   2042.9263    
   2039.7412    
   2014.2922    
   2007.9445    
   2015.3550    
   2016.4164    
   1992.1011    
   1968.9153    
   1996.3287    
   2005.8430    
   1992.1102    
   1988.9458    
   1984.7284    
   1982.6221    
   1965.7742    
   1979.4646    
   1966.8309    
   1956.3196    
   1962.6282    
   1951.0725    
   1938.4866    
   1956.3286    
   1958.4323    
   1941.6384    
   1923.8353    
   1931.1643    
   1923.8400    
   1924.8879    
   1929.0767    
   1930.1261    
   1898.7822    
   1885.2416    
   1895.6594    
   1880.0435    
   1856.1605    
   1864.4618    
   1863.4266    
   1829.2562    
   1837.5288    
   1838.5651    
   1817.9063    
   1823.0688    
   1823.0712    
   1822.0410    
   1814.8212    
   1806.5779    
   1781.8976    
   1769.5884    
   1763.4426    
   1773.6946    
   1757.3036    
   1739.9272    
   1752.1930    
   1755.2640    
   1733.8101    
   1718.5232    
   1705.3002    
   1701.2375    
   1688.0439    
   1695.1486    
   1701.2444    
   1683.9951    
   1680.9573    
   1685.0135    
   1664.7681    
   1660.7272    
   1671.8533    
   1654.6713    
   1644.5826    
   1647.6111    
   1650.6403    
   1644.5895    
   1633.5078    
   1638.5465    
   1628.4799    
   1630.4946    
   1641.5765    
   1636.5410    
   1619.4381    
   1624.4674    
   1640.5776    
   1638.5647    
   1635.5450    
   1646.6343    
   1634.5424    
   1628.5050    
   1639.5840    
   1645.6346    
   1627.5056    
   1636.5685    
   1636.5707    
   1623.4890    
   1636.5753    
   1644.6398    
   1622.4902    
   1606.4230    
   1622.4948    
   1633.5649    
   1626.5222    
   1635.5839    
   1650.7089    
   1660.8094    
   1648.6949    
   1654.7535    
   1659.8057    
   1648.7019    
   1655.7698    
   1655.7720    
   1642.6580    
   1624.5360    
   1655.7789    
   1653.7621    
   1634.6064    
   1640.6531    
   1644.6879    
   1627.5674    
   1621.5356    
   1629.5847    
   1633.6130    
   1624.5590    
   1631.6044    
   1630.5999    
   1612.5068    
   1622.5566    
   1646.7281    
   1651.7749    
   1649.7592    
   1642.7014    
   1631.6227    
   1629.6123    
   1620.5624    
   1625.5924    
   1623.5830    
   1626.6024    
   1629.6238    
   1619.5686    
   1607.5205    
   1609.5297    
   1613.5479    
   1607.5273    
   1629.6375    
   1635.6802    
   1631.6548    
   1635.6848    
   1635.6871    
   1630.6550    
   1627.6384    
   1636.7014    
   1642.7496    
   1652.8395    
   1669.0104    
   1687.2432    
   1682.1769    
   1672.0525    
   1680.1553    
   1677.1184    
   1681.1726    
   1697.4039    
   1710.6174    
   1713.6716    
   1720.8002    
   1736.0957    
   1741.2028    
   1744.2693    
   1771.9071    
   1791.4164    
   1792.4470    
   1812.0098    
   1828.5228    
   1835.7600    
   1846.1104    
   1860.6228    
   1879.3220    
   1888.6898    
   1902.2406    
   1902.2428    
   1900.1594    
   1898.0765    
   1916.8683    
   1925.2360    
   1911.6488    
   1905.3872    
   1902.2590    
   1888.7128    
   1888.7151    
   1884.5533    
   1852.3622    
   1818.2432    
   1815.1511    
   1813.0909    
   1778.1216    
   1759.6743    
   1724.9491    
   1696.4713    
   1652.9431    
   1638.8264    
   1621.7196    
   1586.6173    
   1579.6182    
   1564.6398    
   1536.7554    
   1514.9192    
   1502.0457    
   1470.4475    
   1447.8176    
   1438.0011    
   1408.6228    
   1389.1003    
   1379.3595    
   1350.2062    
   1339.5461    
   1316.3373    
   1308.6180    
   1295.1270    
   1272.0532    
   1255.7524    
   1250.9661    
   1224.2089    
   1208.9620    
   1192.7960    
   1193.7485    
   1165.2982    
   1140.7275    
   1147.3378    
   1126.5914    
   1126.5938    
   1121.8887    
   1106.8458    
   1102.1530    
   1099.3395    
   1084.3412    
   1056.2971    
   1054.4336    
   1059.1022    
   1050.7075    
   1032.0837    
   1016.2891    
   1013.5073    
    992.1981    
    983.8770    
    986.6526    
    980.1854    
    977.4167    
    973.7259    
    958.9741    
    943.3307    
    957.1360    
    957.1384    
    932.3137    
    931.3978    
    921.3098    
    910.3195    
    904.8317    
    911.2396    
    913.0729    
    906.6680    
    893.8721    
    888.3963    
    886.5736    
    881.1025    
    871.9918    
    860.1636    
    837.4664    
    845.6325    
    845.6348    
    827.5070    
    826.6037    
    848.3650    
    847.4598    
    842.0168    
    834.7651    
    837.4872    
    813.9536    
    794.9995    
    794.1001    
    787.7948    
    776.0971    
    786.8986    
    798.6182    
    787.8041    
    787.8064    
    782.4066    
    765.3265    
    753.6628    
    755.4590    
    768.0281    
    754.5667    
    742.9200    
    744.7132    
    733.0817    
    741.1362    
    742.0339    
    733.0886    
    724.1539    
    726.8362    
    716.1238    
    694.7425    
    719.6983    
    737.5753    
    728.6348    
    720.5981    
    714.3537    
    697.4261    
    686.7551    
    694.7611    
    697.4330    
    702.7773    
    734.0179    
    741.1780    
    717.9413    
    710.8073    
    699.2271    
    681.4453    
    662.8189    
    684.1149    
    710.8189    
    730.4623    
    740.3042    
    748.3663    
    742.0990    
    720.6447    
    702.8123    
    704.5964    
    711.7294    
    722.4395    
    731.3768    
    735.8508    
    733.1700    
    743.9111    
    762.7423    
    743.9157    
    732.2850    
    743.9204    
    742.1316    
    744.8202    
    759.1661    
    777.1356    
    764.5564    
    768.1514    
    765.4592    
    735.8835    
    723.3724    
    712.6650    
    708.2098    
    721.5936    
    751.1177    
    769.0687    
    764.5797    
    771.7692    
    771.7715    
    767.2809    
    766.3854    
    741.2805    
    748.4479    
    730.5508    
    743.9741    
    761.9075    
    765.5012    
    773.5900    
    777.1893    
    781.6904    
    780.7927    
    787.0966    
    789.8011    
    758.3364    
    752.9576    
    742.2086    
    734.1578    
    755.6548    
    786.2122    
    815.9895    
    805.1515    
    815.0906    
    807.8648    
    786.2239    
    780.8254    
    787.1293    
    793.4385    
    802.4597    
    825.0562    
    841.3681    
    813.3036    
    808.7891    
    803.3740    
    784.4468    
    797.0635    
    802.4783    
    827.7912    
    825.0773    
    831.4186    
    820.5580    
    786.2637    
    801.5904    
    825.9943    
    845.0301    
    839.5896    
    826.9067    
    827.8146    
    783.5792    
    779.9816    
    781.7840    
    799.8068    
    826.0154    
    865.9525    
    888.7389    
    867.7772    
    855.9562    
    855.0496    
    817.8871    
    801.6302    
    802.5346    
    809.7599    
    817.8965    
    864.1564    
    896.0679    
    904.2969    
    921.6967    
    896.9887    
    854.1672    
    826.0552    
    807.0718    
    825.1547    
    831.4960    
    865.0894    
    876.9298    
    886.9632    
    881.4921    
    865.0988    
    873.2948    
    877.8525    
    889.7129    
    905.2493    
    897.0240    
    897.0263    
    899.7702    
    890.6371    
    883.3398    
    886.0788    
    897.9515    
    896.1266    
    907.0999    
    912.5941    
    883.3539    
    867.8665    
    876.0654    
    871.5129    
    842.4302    
    840.6187    
    866.9684    
    845.1592    
    834.2798    
    838.8141    
    847.8897    
    833.3806    
    833.3829    
    834.2916    
    810.7692    
    833.3900    
    840.6447    
    831.5830    
    817.1050    
    798.1440    
    798.1464    
    786.4329    
    797.2491    
    795.4484    
    764.8588    
    778.3424    
    779.2445    
    771.1541    
    754.1004    
    750.5174    
    749.6234    
    717.4330    
    717.4353    
    719.2224    
    710.3044    
    699.6160    
    681.8343    
    672.0729    
    643.7432    
    647.2814    
    643.7479    
    623.4514    
    633.1551    
    634.9229    
    639.3398    
    632.2801    
    637.5785    
    651.7224    
    628.7584    
    614.6618    
    605.8659    
    564.6517    
    531.4932    
    536.7217    
    553.2982    
    538.4692    
    562.9149    
    572.5414    
    541.9633    
    553.3099    
    573.4236    
    576.0531    
    548.9518    
    535.8739    
    522.8185    
    500.2411    
    497.6425    
    490.7129    
    481.1942    
    475.1440    
    469.9619    
    486.3929    
    475.1510    
    496.7921    
    484.6693    
    467.3830    
    478.6186    
    476.8915    
    482.0830    
    463.9395    
    463.0793    
    469.9879    
    463.9466    
    467.4020    
    462.2257    
    454.4662    
    454.4685    
    466.5484    
    462.2352    
    441.5576    
    451.8927    
    438.1212    
    436.4032    
    463.9727    
    456.2119    
    450.1816    
    440.7137    
    452.7711    
    454.4970    
    431.2623    
    452.7782    
    469.1720    
    475.2221    
    470.9040    
    461.4102    
    436.4341    
    414.1120    
    408.1145    
    408.9738    
    396.9904    
    407.2654    
    417.5537    
    451.9449    
    441.6146    
    436.4554    
    432.1598    
    408.1359    
    436.4626    
    456.2689    
    453.6853    
    441.6312    
    425.3016    
    411.5778    
    385.9111    
    367.9964    
    345.8740    
    356.9305    
    396.1776    
    444.2321    
    472.6938    
    445.9584    
    433.0569    
    421.8939    
    387.6432    
    368.0202    
    350.9976    
    370.5819    
    372.2892    
    376.5563    
    421.9106    
    427.9231    
    427.0665    
    401.3475    
    391.9404    
    379.9840    
    361.2318    
    374.0164    
    368.9030    
    385.9706    
    386.8268    
    365.5017    
    374.0283    
    345.9383    
    322.1860    
    314.5685    
    334.9069    
    360.4065    
    361.2604    
    371.4865    
    382.5807    
    371.4912    
    375.7579    
    367.2346    
    368.0893    
    347.6663    
    355.3219    
    351.0715    
    346.8239    
    347.6758    
    340.0332    
    348.5307    
    331.5524    
    341.7384    
    352.7892    
    323.9302    
    325.6271    
    313.7747    
    314.6234    
    333.2652    
    340.0571    
    337.5128    
    322.2529    
    334.9713    
    340.9153    
    340.9177    
    345.1672    
    337.5272    
    337.5295    
    330.7448    
    329.8991    
    318.8868    
    313.8105    
    336.6927    
    322.2816    
    323.1307    
    323.9804    
    335.0048    
    342.6476    
    314.6736    
    318.9084    
    329.9254    
    324.8422    
    345.2079    
    339.2653    
    353.7135    
    349.4645    
    340.9704    
    346.0696    
    346.0721    
    355.4270    
    357.1309    
    363.0923    
    357.1357    
    363.9489    
    381.0044    
    357.9940    
    355.4438    
    357.1477    
    345.2462    
    341.0015    
    330.8214    
    365.6714    
    370.7873    
    388.7128    
    389.5699    
    364.8295    
    386.1570    
    378.4752    
    369.0966    
    362.2837    
    363.1378    
    381.8990    
    367.4021    
    384.4653    
    396.4333    
    393.8701    
    382.7649    
    367.4141    
    385.3315    
    369.9755    
    373.3883    
    379.3624    
    388.7584    
    393.0341    
    372.5450    
    362.3221    
    357.2173    
    368.2904    
    377.6722    
    374.2628    
    379.3840    
    394.7638    
    407.6046    
    411.8910    
    390.4962    
    399.0506    
    376.8386    
    389.6491    
    392.2156    
    393.9278    
    419.6259    
    416.1971    
    418.7726    
    404.2053    
    399.9276    
    407.6359    
    373.4508    
    386.2555    
    396.5150    
    402.5072    
    384.5543    
    388.8281    
    409.3659    
    402.5168    
    420.5177    
    427.3874    
    421.3803    
    435.1259    
    435.1283    
    430.8332    
    409.3852    
    402.5361    
    411.1041    
    391.4209    
    414.5378    
    424.8354    
    448.0544    
    446.3344    
    460.9875    
    479.1276    
    447.2028    
    444.6225    
    448.9297    
    426.5723    
    419.7078    
    411.1355    
    423.1453    
    407.7130    
    413.7141    
    434.3192    
    407.7202    
    403.4406    
    387.1938    
    384.6338    
    385.4904    
    407.7323    
    421.4526    
    412.0211    
    432.6221    
    414.5981    
    404.3187    
    397.4742    
    394.0555    
    403.4696    
    395.7710    
    399.1953    
    410.3291    
    378.6920    
    382.1086    
    387.2349    
    390.6553    
    370.1731    
    367.6189    
    372.7355    
    357.4053    
    360.8124    
    359.1125    
    353.1594    
    359.1174    
    367.6359    
    375.3108    
    371.0499    
    384.7039    
    375.3180    
    332.7920    
    333.6428    
    304.8579    
    287.9778    
    285.4511    
    304.0205    
    327.7193    
    332.8090    
    353.1957    
    327.7265    
    306.5679    
    298.9665    
    282.0995    
    293.9067    
    276.2089    
    273.6861    
    268.6402    
    261.9176    
    279.5869    
    276.2210    
    283.8040    
    265.2893    
    266.9731    
    272.8638    
    254.3753    
    268.6620    
    259.4185    
    251.8647    
    261.1039    
    273.7201    
    282.9859    
    269.5179    
    257.7534    
    246.0072    
    213.3767    
    222.5692    
    207.5392    
    192.5390    
    177.5683    
    206.7121    
    230.1084    
    232.6216    
    242.6756    
    234.3010    
    235.1409    
    224.2654    
    229.2861    
    243.5261    
    225.9454    
    220.9312    
    208.4072    
    181.7558    
    199.2397    
    184.2560    
    179.2692    
    154.3768    
    156.8650    
    176.7834    
    185.0995    
    213.4375    
    191.7622    
    186.7710    
    175.9646    
    167.6633    
    168.4958    
    151.9157    
    162.6928    
    157.7202    
    153.5799    
    163.5292    
    158.5566    
    175.9865    
    170.1753    
    174.3301    
    166.0306    
    149.4559    
    157.7422    
    144.4950    
    154.4328    
    139.5373    
    143.6748    
    159.4125    
    155.2708    
    170.2021    
    171.8654    
    163.5682    
    160.2539    
    162.7440    
    171.8752    
    154.4597    
    151.1489    
    156.1215    
    152.8100    
    166.9064    
    157.7861    
    165.2520    
    148.6792    
    147.8542    
    157.7959    
    147.8591    
    142.0694    
    137.9372    
    135.4601    
    128.8540    
    130.5083    
    150.3573    
    123.0838    
    137.1251    
    159.4785    
    161.9683    
    169.4383    
    156.9992    
    159.4882    
    157.8325    
    166.1283    
    166.9602    
    141.2813    
    143.7652    
    130.5426    
    133.0229    
    145.4276    
    149.5683    
    164.4883    
    140.4713    
    148.7477    
    144.6123    
    135.5188    
    146.2719    
    123.1376    
    138.8326    
    118.1940    
    110.7791    
    116.5497    
    100.9062    
    115.7307    
    104.2024    
    105.8508    
    100.9160    
    105.8557    
    128.1164    
    109.1541    
    106.6864    
    106.6889    
    107.5143    
    124.8274    
    118.2307    
    124.8323    
     98.4725    
     84.5076    
     92.7230    
    102.5931    
    118.2455    
    107.5364    
    119.0751    
    124.0266    
    112.4859    
    102.6078    
     77.1457    
     87.8164    
     79.6111    
     64.0431    
     71.4172    
     75.5177    
     88.6500    
     78.8030    
     86.1915    
     90.3000    
     74.7105    
     79.6333    
     76.3550    
     74.7179    
     64.0701    
     70.6247    
     74.7253    
     44.4553    
     46.9077    
     49.3609    
     54.2677    
     78.8374    
     59.1796    
     67.3676    
     55.9127    
     82.1290    
     89.5207    
     65.7399    
     55.9225    
     42.8517    
     69.8422    
     81.3231    
     86.2506    
     90.3591    
     58.3910    
     72.3127    
     76.4141    
     82.9794    
     92.0148    
     88.7313    
     92.8411    
     73.1472    
     76.4289    
     82.9942    
     77.2540    
     82.9991    
     83.8219    
     95.3244    
     76.4437    
     73.9867    
     86.2949    
     84.6552    
     97.8032    
     84.6602    
     69.0820    
     67.4465    
     64.9924    
     83.0287    
     85.4936    
     95.3541    
     88.7831    
     71.5577    
     92.0740    
     80.5819    
     82.2252    
     77.3058    
     88.7979    
     81.4119    
     70.7554    
     97.8452    
     91.2720    
     97.0277    
     98.6745    
     80.6067    
     83.8911    
     74.0509    
     83.8960    
     78.1553    
     80.6190    
     85.5455    
     76.5228    
     77.3454    
     77.3479    
     80.6314    
     84.7368    
     69.1587    
     89.6689    
     70.8024    
     67.5281    
     65.0741    
     54.4405    
     69.9929    
     69.1760    
    101.1945    
     97.9070    
     86.4062    
     69.1859    
     61.0011    
     65.9153    
     54.4628    
     67.5579    
     65.1038    
     45.4820    
     58.5615    
     41.4047    
     55.2950    
     60.2055    
     53.6650    
     56.9382    
     45.4994    
     60.2154    
     45.5043    
     51.2253    
     52.0448    
     43.8784    
     56.1377    
     47.9669    
     52.8722    
     51.2402    
     38.1778    
     52.0621    
     46.3455    
     43.8983    
     35.7407    
     36.5590    
     47.1723    
     41.4593    
     47.9943    
     38.2002    
     43.9157    
     42.2857    
     41.4718    
     51.2750    
     30.0587    
     30.0612    
     27.6193    
     30.0662    
     42.3031    
     25.1831    
     21.1143    
     31.7060    
     48.8457    
     49.6653    
     33.3442    
     47.2196    
     41.5066    
     46.4077    
     37.4315    
     24.3935    
     42.3329    
     32.5462    
     43.9704    
     65.2306    
     68.5088    
     69.3300    
     49.6977    
     57.0576    
     48.8855    
     58.6983    
     64.4292    
     49.7102    
     57.0701    
     49.7151    
     65.2580    
     64.4416    
     73.4547    
     72.6375    
     68.5437    
     84.1246    
     81.6653    
     67.7320    
     65.2779    
     66.0993    
     81.6752    
     72.6574    
     80.0396    
     83.3242    
     71.0262    
     86.6127    
     76.7689    
     75.9513    
     71.0362    
     69.3999    
     74.3194    
     62.0361    
     80.0646    
     70.2293    
     69.4124    
     74.3319    
     72.6949    
     86.6427    
     73.5196    
     74.3419    
     82.5459    
     71.0687    
     88.2973    
     93.2285    
     98.1635    
     82.5584    
     85.0230    
    107.2216    
     98.1735    
    105.5800    
     85.8541    
     66.9979    
     66.1818    
     57.1825    
     71.1013    
     58.0051    
     56.3721    
     59.6464    
     62.1036    
     62.1061    
     54.7470    
     63.7479    
     63.7504    
     68.6662    
     77.6842    
     68.6712    
     62.9423    
     53.1292    
     47.4120    
     53.1342    
     62.1337    
     78.5215    
     54.7770    
     50.6925    
     56.4172    
     48.2465    
     56.4222    
     49.8853    
     54.7921    
     36.8287    
     30.3086    
     44.9946    
     28.6836    
     25.4281    
     30.3186    
     44.1881    
     45.8239    
     32.7714    
     34.4043    
     15.6760    
     31.1489    
     45.8365    
     42.5731    
     45.8415    
     32.7890    
     40.1323    
     39.3187    
     52.3870    
     48.3043    
     27.0971    
     31.9887    
     18.1467    
     28.7339    
     28.7364    
     36.0758    
     45.0550    
     14.0919    
     17.3480    
     32.8242    
     41.7995    
     33.6446    
     18.9857    
     20.6156    
     23.0602    
     34.4697    
     50.7981    
     39.3691    
     55.7075    
     56.5278    
     66.3501    
     81.1059    
     86.8536    
