  11100 11  1   BR78     POSU   BMW  .000 U SI 022092 00.01   1        
  PROGRAM LAMBDA-9   VERSION 02.31                                     
  USER BMW DATE & TIME  1992 02 24 09.20 30.87    4.3900    295K P     
 AU1 TM 300     0     0 YLF             1.500000 - 2.000000 .00020     
 FILE NAME                                ON PC = BR78.DX              
 NO_POINTS  =  2501.    pts   DATA_INTV =  .000200 ˆm                  
 MIN_LAMBDA =  1.500000 ˆm     MIN_DATA =    .07270                    
 MAX_LAMBDA =  2.000000 ˆm     MAX_DATA =    .93030                    
 SCANSPEED  = 60.000000 NM/MIN SLITWIDTH=   .00000 ˆm                  
  RESP TIME =  1.0      sec SENSITIVITY = 5          DATE=92/02/20     
 VERTICAL POL. (E PARALLEL TO C-AXIS)                                  
  This spectra is part of Database LASERS
 Database LASERS was created by Pat Cross working 
 at NASA Langley Research Center, Internal Operations Group,
 Aerospace Electronics Systems Division, Remote Sensing 
 Technology Branch. phone:(757)864-1633   fax:(757)864-7894 
     e-mail p.l.cross@larc.nasa.gov 
     homepage http://aesd.larc.nasa.gov/laser/dbmain.htm
  EOH     (1X,F11.4)                                                   
  2501.         
    102.0020    
    116.9218    
    114.4358    
    127.7186    
    118.5881    
    109.4686    
    114.4448    
     91.2623    
     97.0541    
     95.4015    
     97.0586    
    111.1395    
    115.2877    
    128.5715    
    109.4888    
    104.5198    
    104.5220    
    105.3527    
    116.1302    
    109.4999    
    119.4534    
    117.7964    
    103.7077    
    102.0536    
     89.6468    
    121.9549    
    130.2627    
    118.6396    
    113.6647    
    116.1549    
    144.4120    
    130.2739    
    128.6140    
    124.4635    
     97.9399    
    106.2215    
    114.5120    
    136.9385    
    126.1354    
    111.2022    
    117.8389    
    112.0358    
    122.8228    
    120.3349    
    116.1885    
    121.9997    
    120.3417    
    141.1205    
    133.6368    
    129.4831    
    134.4724    
    100.4608    
    102.9466    
    117.8680    
    134.4813    
    137.8103    
    127.0065    
    133.6570    
    122.0288    
    126.1825    
    131.1696    
    132.8345    
    136.9945    
    125.3608    
    136.9990    
    132.8434    
    137.0035    
    135.3421    
    118.7315    
    132.0210    
    129.5301    
    130.3635    
    116.2512    
    105.4781    
    123.7249    
    118.7471    
    128.7126    
    128.7148    
    121.2434    
    117.0965    
    103.8376    
    120.4200    
    103.8420    
    115.4467    
    126.2385    
    103.0206    
    116.2825    
    116.2848    
    119.6057    
    117.9487    
    109.6590    
    116.2937    
    106.3491    
    107.1799    
    109.6679    
    107.1844    
    115.4759    
    122.9460    
    141.2347    
    137.0774    
    124.6136    
    112.9994    
     99.7472    
    109.6881    
    104.7191    
     98.9262    
     95.6188    
     89.0065    
    107.2135    
     98.1079    
    101.4204    
     95.6300    
     99.7696    
    109.7105    
    111.3702    
    120.4962    
    109.7172    
    112.2060    
    116.3542    
    109.7239    
    127.9807    
    122.1700    
    118.0226    
    113.8775    
     98.1415    
    101.4540    
    100.6288    
    103.1146    
    119.6953    
    109.7463    
    104.7774    
     99.8122    
    111.4105    
    106.4410    
    108.9287    
    115.5632    
    108.1044    
    118.8860    
    119.7177    
    115.5722    
    110.5994    
     94.0431    
     91.5648    
     83.3039    
    108.1224    
    116.4147    
    101.5011    
     99.0202    
     98.1953    
    113.9357    
    108.1358    
    112.2822    
    132.2070    
    119.7513    
    130.5494    
    136.3710    
    140.5324    
    129.7250    
    120.5925    
    118.9353    
    120.5970    
    128.0726    
    126.4132    
    104.8513    
    114.7987    
    113.1428    
    117.2914    
    103.2043    
    109.8337    
    137.2342    
    112.3248    
    128.0950    
    134.7457    
    129.7609    
    128.9321    
    133.9213    
    123.1230    
    103.2267    
    104.8849    
    121.4697    
    108.2030    
     94.9600    
     78.4374    
     96.6187    
    109.0407    
    127.2955    
    143.0967    
    114.0209    
    104.9073    
    123.1521    
    140.6086    
    132.2943    
    107.4018    
    111.5472    
    114.8660    
    131.4720    
    142.2867    
    123.1701    
    142.2912    
    128.9881    
    137.3037    
    147.2931    
    154.7949    
    152.2966    
    128.1689    
    130.6637    
    134.8219    
    136.4875    
    128.1779    
    111.5831    
    125.6901    
    129.0150    
    120.7136    
    123.2059    
    117.3990    
    124.0408    
    113.2571    
    133.1840    
    131.5236    
    119.8992    
    124.8825    
     96.7038    
    132.3638    
    141.5148    
    134.8622    
    117.4237    
    106.6494    
    144.8534    
    144.0230    
    135.7051    
    146.5252    
    143.1976    
    142.3674    
    123.2508    
    135.7163    
    135.7186    
    150.7038    
    172.4005    
    153.2082    
    148.2113    
    141.5529    
    139.0591    
    140.7251    
    139.8957    
    149.8884    
    141.5641    
    137.4068    
    144.0656    
    131.5908    
    135.7500    
    126.6105    
    129.1047    
    138.2517    
    146.5768    
    151.5775    
    130.7758    
    136.5974    
    139.9271    
    142.4257    
    146.5902    
    130.7870    
    142.4324    
    133.2849    
    144.9341    
    172.4610    
    161.6080    
    168.2885    
    149.1073    
    175.8131    
    164.1210    
    151.6134    
    168.2997    
    154.9519    
    159.9576    
    172.4834    
    179.1735    
    180.8483    
    159.9666    
    175.8356    
    168.3177    
    159.9733    
    163.3132    
    153.3069    
    156.6438    
    154.1450    
    170.8368    
    173.3461    
    170.0063    
    172.5148    
    158.3254    
    171.6837    
    177.5366    
    176.7026    
    170.8548    
    155.0012    
    180.8910    
    173.3686    
    167.5228    
    175.8804    
    170.8683    
    172.5418    
    169.2023    
    176.7251    
    175.0556    
    164.1995    
    187.6086    
    180.9156    
    193.4760    
    197.6686    
    210.2567    
    208.5799    
    185.1108    
    180.0925    
    171.7353    
    180.9336    
    203.5556    
    190.9830    
    192.6605    
    181.7793    
    182.6178    
    180.1105    
    184.2961    
    190.1588    
    170.0871    
    174.2668    
    185.1422    
    187.6557    
    203.5825    
    198.5520    
    193.5254    
    190.1767    
    191.8540    
    213.6682    
    201.0789    
    206.1156    
    194.3770    
    193.5411    
    206.1223    
    202.7681    
    200.2541    
    165.9497    
    180.1576    
    197.7449    
    201.1014    
    200.2653    
    183.5131    
    184.3523    
    178.4986    
    182.6829    
    200.2766    
    198.6014    
    212.0310    
    212.8729    
    211.1954    
    206.1605    
    202.8063    
    229.7013    
    212.8841    
    220.4506    
    224.6585    
    220.4551    
    224.6630    
    217.9375    
    233.0854    
    228.0354    
    215.4230    
    229.7238    
    224.6765    
    228.8863    
    218.7940    
    227.2076    
    222.1615    
    207.0399    
    237.3201    
    223.8508    
    232.2700    
    238.1697    
    244.9177    
    246.6070    
    231.4367    
    239.8648    
    249.9896    
    239.8693    
    258.4401    
    249.1521    
    252.5314    
    245.7816    
    240.7232    
    264.3691    
    270.2943    
    273.6825    
    255.0789    
    265.2240    
    268.6104    
    250.0188    
    258.4670    
    253.4007    
    266.9274    
    257.6291    
    250.8744    
    264.3961    
    268.6284    
    273.7094    
    261.8661    
    260.1779    
    267.7911    
    256.8020    
    276.2618    
    287.2836    
    293.2262    
    298.3237    
    289.8356    
    293.2329    
    275.4282    
    298.3326    
    290.6933    
    277.9761    
    300.0389    
    293.2464    
    289.0049    
    283.9182    
    284.7685    
    289.8603    
    276.2978    
    289.0161    
    286.4734    
    294.9622    
    306.8622    
    303.4633    
    327.3054    
    307.7191    
    313.6777    
    320.4930    
    300.9248    
    323.0538    
    319.6476    
    323.9108    
    323.0606    
    315.3964    
    323.0651    
    335.0086    
    341.8431    
    320.5155    
    331.6016    
    351.2541    
    338.4352    
    338.4375    
    334.1712    
    329.9068    
    323.9400    
    319.6814    
    340.1572    
    328.2101    
    336.7456    
    323.0988    
    321.3969    
    335.8985    
    331.6331    
    342.7359    
    318.8501    
    329.9338    
    359.8516    
    358.9978    
    360.7127    
    355.5777    
    363.2871    
    355.5822    
    353.0172    
    362.4369    
    347.8892    
    351.3126    
    350.4593    
    354.7397    
    365.8759    
    348.7557    
    358.1707    
    356.4604    
    355.6070    
    364.1733    
    347.9117    
    359.0383    
    353.0487    
    364.1823    
    368.4705    
    361.6167    
    366.7602    
    365.0485    
    383.0690    
    381.3531    
    371.0565    
    377.9229    
    376.2087    
    389.9557    
    372.7809    
    387.3808    
    403.7317    
    398.5677    
    426.1652    
    419.2591    
    414.9467    
    405.4662    
    387.3966    
    409.7795    
    410.6440    
    422.7260    
    426.1832    
    430.5060    
    441.7542    
    434.8340    
    447.8210    
    427.0586    
    429.6532    
    453.0277    
    454.7644    
    459.1035    
    451.3009    
    455.6380    
    455.6403    
    451.3077    
    469.5341    
    466.9304    
    480.8421    
    473.8867    
    466.9371    
    465.2021    
    448.7237    
    459.9984    
    464.3409    
    473.9002    
    490.4380    
    485.2147    
    497.4159    
    488.7027    
    486.0923    
    489.5784    
    502.6589    
    514.8882    
    507.0281    
    525.3889    
    525.3912    
    514.8972    
    516.6481    
    527.1490    
    537.6639    
    535.9132    
    542.0533    
    556.1034    
    554.3484    
    564.0217    
    562.2644    
    566.6658    
    557.8728    
    545.5787    
    561.3943    
    562.2756    
    567.5573    
    564.9197    
    562.2824    
    584.3049    
    588.7191    
    592.2526    
    586.9589    
    579.0234    
    587.8454    
    603.7493    
    621.4595    
    613.4879    
    601.9878    
    606.4123    
    622.3546    
    658.7915    
    655.2314    
    652.5631    
    665.0363    
    664.1469    
    683.7856    
    681.1072    
    670.3961    
    664.1559    
    676.6486    
    692.7397    
    688.2692    
    699.0101    
    682.9103    
    684.6998    
    702.5994    
    710.6696    
    734.0267    
    723.2407    
    722.3445    
    736.7328    
    725.9430    
    734.0380    
    742.1412    
    759.2744    
    763.7914    
    759.2789    
    768.3129    
    766.5081    
    782.7908    
    789.1338    
    797.2960    
    798.2056    
    810.9203    
    830.0313    
    817.2891    
    821.8407    
    820.9327    
    815.4772    
    840.0712    
    831.8676    
    832.7808    
    820.9440    
    829.1404    
    842.8198    
    840.9973    
    862.9286    
    867.5077    
    863.8484    
    863.8507    
    865.6832    
    897.7917    
    884.9349    
    879.4331    
    886.7753    
    868.4410    
    893.2079    
    909.7648    
    932.8195    
    932.8217    
    930.9774    
    954.0967    
    941.1443    
    950.3977    
    957.8083    
    955.9579    
    964.3019    
    976.3688    
    997.7640    
    992.1794    
    997.7686    
   1010.8220    
   1018.2917    
   1040.7423    
   1044.4924    
   1038.8734    
   1039.8124    
   1052.9382    
   1074.5505    
   1072.6709    
   1084.9120    
   1065.1538    
   1058.5808    
   1067.0383    
   1074.5641    
   1112.2958    
   1114.1892    
   1121.7618    
   1139.7736    
   1132.1880    
   1151.1749    
   1160.6874    
   1174.9775    
   1171.1670    
   1168.3110    
   1191.2096    
   1185.4814    
   1192.1698    
   1206.5193    
   1218.0190    
   1242.9917    
   1250.6938    
   1264.1897    
   1271.9135    
   1273.8475    
   1281.5806    
   1281.5829    
   1314.5311    
   1318.4188    
   1334.9561    
   1340.8027    
   1339.8309    
   1336.9103    
   1330.0979    
   1367.1682    
   1382.8319    
   1384.7946    
   1375.9805    
   1383.8188    
   1413.2782    
   1409.3462    
   1423.1271    
   1429.0420    
   1427.0730    
   1448.7894    
   1459.6721    
   1477.5123    
   1493.4055    
   1477.5168    
   1492.4156    
   1495.4014    
   1497.3927    
   1511.3344    
   1512.3334    
   1535.2946    
   1542.2982    
   1561.3370    
   1560.3359    
   1570.3757    
   1590.4917    
   1597.5465    
   1619.7565    
   1626.8385    
   1633.9270    
   1655.2280    
   1677.6077    
   1696.9891    
   1695.9701    
   1701.0798    
   1720.5214    
   1732.8263    
   1749.2639    
   1754.4091    
   1762.6481    
   1770.8959    
   1786.3826    
   1797.7603    
   1773.9969    
   1800.8700    
   1802.9429    
   1820.5706    
   1846.5681    
   1854.9070    
   1893.5880    
   1915.6309    
   1926.1511    
   1939.8491    
   1937.7424    
   1936.6912    
   1947.2406    
   1978.9725    
   1981.0952    
   2000.2048    
   2034.2947    
   2030.0276    
   2053.5410    
   2068.5427    
   2091.1001    
   2116.9624    
   2120.2031    
   2142.9148    
   2131.0132    
   2142.9192    
   2161.3550    
   2184.1899    
   2210.3718    
   2223.4971    
   2260.8064    
   2261.9089    
   2260.8110    
   2290.5701    
   2311.5828    
   2340.4307    
   2358.2383    
   2395.0974    
   2398.4590    
   2396.2219    
   2427.6418    
   2438.8962    
   2482.9421    
   2503.3589    
   2513.5894    
   2537.5100    
   2561.5063    
   2598.2175    
   2612.0320    
   2638.5774    
   2669.8574    
   2674.5044    
   2704.7673    
   2715.2720    
   2739.8376    
   2762.1328    
   2772.7180    
   2815.1982    
   2832.9705    
   2869.8296    
   2922.4529    
   2951.3127    
   2994.8074    
   3008.1487    
   3045.8696    
   3062.9675    
   3081.3298    
   3126.8108    
   3126.8130    
   3151.5117    
   3178.7737    
   3232.3401    
   3278.7373    
   3301.4128    
   3348.2344    
   3359.6694    
   3406.8535    
   3441.4709    
   3463.3494    
   3491.7563    
   3515.0779    
   3573.6941    
   3599.8923    
   3619.6016    
   3668.4338    
   3696.2905    
   3746.9573    
   3792.5798    
   3826.3020    
   3845.2529    
   3857.4609    
   3903.7544    
   3953.0798    
   4013.8047    
   4062.4580    
   4076.4177    
   4112.8311    
   4149.4194    
   4217.4316    
   4267.4121    
   4303.3154    
   4362.5645    
   4387.2686    
   4445.7129    
   4507.5674    
   4562.4785    
   4622.2920    
   4668.9751    
   4763.2070    
   4836.9731    
   4902.1118    
   4967.8145    
   5037.2607    
   5091.3628    
   5176.4731    
   5272.3540    
   5352.9155    
   5454.4146    
   5560.6851    
   5616.9517    
   5703.0044    
   5818.1069    
   5906.4834    
   6022.9316    
   6133.8623    
   6233.4346    
   6364.4834    
   6469.0610    
   6612.0767    
   6757.8379    
   6892.2690    
   6983.9141    
   7101.6074    
   7297.6372    
   7433.3677    
   7595.9580    
   7773.4644    
   7943.5869    
   8143.8198    
   8332.3281    
   8558.3369    
   8775.6992    
   8956.8398    
   9197.0537    
   9419.6592    
   9683.9932    
   9915.5439    
  10135.7373    
  10378.5098    
  10599.5576    
  10902.3779    
  11196.3408    
  11424.5303    
  11732.1973    
  12013.0205    
  12292.2539    
  12582.1494    
  12905.8662    
  13151.1191    
  13481.3037    
  13851.7705    
  14177.5703    
  14479.3926    
  14765.1123    
  15091.7461    
  15408.1699    
  15693.0625    
  16138.0820    
  16459.4551    
  16589.0098    
  16892.6250    
  17122.7363    
  17424.5938    
  17705.2383    
  17961.7871    
  18128.8672    
  18474.4805    
  18615.3594    
  18691.5781    
  18905.2090    
  19074.5039    
  19288.9844    
  19351.3945    
  19268.2988    
  19237.3730    
  19196.3320    
  19094.6855    
  19024.3359    
  19094.6895    
  19155.5176    
  18934.8359    
  18826.8555    
  18778.2773    
  18739.6387    
  18739.6406    
  18568.1504    
  18391.2383    
  18290.6699    
  18227.3594    
  18191.4160    
  18014.2109    
  17806.8828    
  17638.3320    
  17514.3301    
  17497.9512    
  17336.0488    
  17138.4082    
  16870.0781    
  16772.7813    
  16735.6895    
  16757.9258    
  16698.7813    
  16581.8535    
  16488.1582    
  16283.2168    
  16124.5234    
  15995.8848    
  15751.4619    
  15584.2959    
  15426.9570    
  15303.3926    
  15127.7207    
  14909.3311    
  14782.3955    
  14629.4561    
  14551.3516    
  14446.6221    
  14300.2344    
  14125.0664    
  13938.4736    
  13701.5693    
  13481.4688    
  13281.6436    
  13096.1006    
  12968.8682    
  12888.1885    
  12698.8506    
  12454.9316    
  12267.7510    
  12133.3604    
  11997.3408    
  11820.9814    
  11656.2031    
  11465.2930    
  11275.4600    
  11153.8574    
  11009.7627    
  10892.3086    
  10783.3994    
  10586.6035    
  10410.8486    
  10283.2344    
  10157.7285    
  10000.6611    
   9885.7070    
   9760.6455    
   9620.1943    
   9482.2949    
   9358.0498    
   9252.3604    
   9134.5117    
   9034.5508    
   8946.4941    
   8781.1680    
   8642.2695    
   8568.7129    
   8478.3809    
   8381.7188    
   8237.7842    
   8156.0630    
   8061.0332    
   7981.1821    
   7876.7715    
   7785.1528    
   7687.8799    
   7580.7480    
   7499.1865    
   7418.4932    
   7342.9419    
   7283.0386    
   7145.7695    
   7081.1675    
   7023.2866    
   6959.7144    
   6874.4243    
   6784.0923    
   6708.6401    
   6604.6401    
   6527.0830    
   6467.5166    
   6397.0273    
   6344.1167    
   6250.5386    
   6217.1323    
   6139.7480    
   6045.0186    
   5998.0947    
   5921.1191    
   5859.0356    
   5790.4497    
   5745.0684    
   5705.1484    
   5625.9307    
   5557.7114    
   5490.0991    
   5418.0815    
   5363.2729    
   5307.2139    
   5253.1958    
   5228.7700    
   5175.3062    
   5091.8149    
   5001.3379    
   4960.4248    
   4899.4639    
   4865.2910    
   4815.8574    
   4791.2617    
   4754.5166    
   4689.1201    
   4651.3579    
   4591.3237    
   4528.7954    
   4487.3940    
   4444.7520    
   4416.9434    
   4337.0103    
   4305.2729    
   4275.1016    
   4227.9287    
   4202.3218    
   4151.3643    
   4104.9526    
   4065.7932    
   4028.2236    
   3994.9844    
   3941.2761    
   3907.0479    
   3860.7434    
   3826.8755    
   3807.9763    
   3751.5540    
   3724.8347    
   3684.9294    
   3657.1211    
   3628.0969    
   3592.6274    
   3578.2253    
   3540.3831    
   3509.2083    
   3488.4961    
   3453.6711    
   3411.3223    
   3378.1226    
   3367.9377    
   3323.5327    
   3303.3203    
   3307.1094    
   3266.8230    
   3241.7537    
   3205.5481    
   3204.3049    
   3175.7180    
   3165.8010    
   3164.5642    
   3123.7942    
   3109.0237    
   3085.6948    
   3049.0039    
   3029.5090    
   3024.6448    
   3031.9478    
   3002.7886    
   2970.1172    
   2967.7046    
   2950.8254    
   2939.9956    
   2915.9802    
   2899.2158    
   2895.6301    
   2886.0723    
   2889.6580    
   2874.1440    
   2855.0918    
   2846.7732    
   2850.3403    
   2838.4658    
   2789.9658    
   2784.0740    
   2771.1260    
   2762.8987    
   2772.3071    
   2752.3357    
   2746.4729    
   2735.9299    
   2744.1326    
   2753.5178    
   2744.1372    
   2726.5786    
   2695.0718    
   2691.5813    
   2704.3989    
   2693.9141    
   2707.9021    
   2700.9087    
   2710.2405    
   2707.9089    
   2705.5789    
   2703.2488    
   2699.7546    
   2707.9182    
   2718.4270    
   2721.9346    
   2706.7585    
   2700.9316    
   2728.9565    
   2720.7749    
   2725.4529    
   2744.1855    
   2744.1880    
   2732.4783    
   2728.9705    
   2732.4827    
   2718.4548    
   2732.4873    
   2748.8918    
   2754.7607    
   2775.9202    
   2773.5691    
   2770.0417    
   2770.0439    
   2782.9946    
   2813.6902    
   2818.4258    
   2831.4592    
   2833.8330    
   2844.5176    
   2879.0417    
   2883.8181    
   2893.3767    
   2896.9668    
   2894.5771    
   2924.5273    
   2935.3403    
   2947.3721    
   2961.8352    
   2967.8704    
   2987.2122    
   2993.2676    
   3019.9634    
   3023.6128    
   3035.7859    
   3061.4092    
   3071.1943    
   3103.0796    
   3116.6113    
   3133.8674    
   3149.9270    
   3178.4207    
   3213.2532    
   3228.2322    
   3245.7441    
   3264.5520    
   3294.7400    
   3308.6179    
   3325.0518    
   3355.4817    
   3387.3098    
   3443.6519    
   3490.0635    
   3518.5671    
   3562.8281    
   3607.3494    
   3656.0962    
   3709.1506    
   3763.9187    
   3819.0840    
   3842.0776    
   3885.5464    
   3951.2178    
   4021.6223    
   4061.9502    
   4117.9282    
   4192.7388    
   4238.2681    
   4299.8799    
   4361.9961    
   4399.8037    
   4464.2163    
   4527.6973    
   4588.7241    
   4627.6797    
   4632.1895    
   4674.3931    
   4697.0996    
   4698.6172    
   4695.5879    
   4697.1064    
   4680.4521    
   4659.3076    
   4662.3276    
   4636.7212    
   4558.9224    
   4496.6621    
   4470.1362    
   4420.2803    
   4344.6577    
   4274.0801    
   4172.9644    
   4084.3562    
   4011.9900    
   3910.1824    
   3819.1672    
   3730.5662    
   3661.4797    
   3583.8477    
   3518.6736    
   3451.4802    
   3351.7917    
   3259.6646    
   3195.9592    
   3113.0718    
   3051.8003    
   3011.6309    
   2970.4658    
   2891.1855    
   2825.7456    
   2797.3674    
   2752.6497    
   2710.5271    
   2651.2493    
   2597.0278    
   2562.6206    
   2524.9514    
   2512.4382    
   2484.0723    
   2460.3271    
   2425.4089    
   2398.4858    
   2380.5903    
   2366.0820    
   2353.8276    
   2327.1563    
   2308.3215    
   2300.5811    
   2290.6401    
   2275.2000    
   2256.4937    
   2244.4148    
   2235.6426    
   2213.7539    
   2218.1294    
   2208.2952    
   2206.1138    
   2201.7498    
   2187.5791    
   2169.0867    
   2151.7239    
   2138.7278    
   2111.7222    
   2086.9622    
   2090.1897    
   2076.2251    
   2065.5015    
   2047.3042    
   2037.6887    
   2015.2975    
   1989.7880    
   1979.1857    
   1937.9705    
   1911.6685    
   1900.1256    
   1872.9088    
   1842.6663    
   1837.4658    
   1851.0024    
   1836.4309    
   1817.7363    
   1811.5161    
   1774.2926    
   1777.3900    
   1753.6952    
   1734.1766    
   1722.9004    
   1713.6876    
   1692.2307    
   1657.6172    
   1634.2920    
   1637.3334    
   1626.2001    
   1621.1459    
   1611.0458    
   1597.9346    
   1591.8926    
   1584.8490    
   1575.8021    
   1550.7235    
   1551.7271    
   1537.7183    
   1526.7300    
   1516.7548    
   1505.7966    
   1499.8275    
   1477.9736    
   1453.2156    
   1441.3613    
   1418.6909    
   1420.6619    
   1406.8928    
   1412.7939    
   1390.2085    
   1376.4945    
   1362.8047    
   1338.4188    
   1333.5532    
   1326.7452    
   1301.5054    
   1282.1478    
   1277.3176    
   1273.4563    
   1253.2068    
   1241.6605    
   1237.8173    
   1218.6213    
   1200.4298    
   1181.3280    
   1168.9379    
   1158.4703    
   1159.4241    
   1169.8976    
   1145.1730    
   1131.8942    
   1109.1830    
   1094.0802    
   1099.7437    
   1105.4109    
   1089.3734    
   1073.3698    
   1073.3721    
   1072.4338    
   1054.5889    
   1057.4063    
   1048.9664    
   1039.5994    
   1039.6017    
   1047.0983    
   1047.1006    
   1025.5760    
   1018.1049    
   1019.9746    
   1018.1095    
   1015.3113    
   1006.9176    
    999.4653    
    966.9369    
    957.6705    
    972.5087    
    967.8716    
    973.4411    
    967.8762    
    953.0518    
    940.1047    
    935.4879    
    946.5814    
    938.2639    
    936.4182    
    943.8141    
    931.8060    
    917.0518    
    903.2460    
    920.7429    
    913.3741    
    915.2189    
    929.9736    
    921.6743    
    920.7546    
    906.9421    
    883.9757    
    870.2300    
    870.2323    
    873.8984    
    878.4830    
    888.5758    
    883.9897    
    883.0751    
    870.2463    
    861.0972    
    854.7001    
    830.0693    
    829.1606    
    853.7937    
    859.2802    
    858.3680    
    846.4944    
    828.2615    
    805.5316    
    810.0751    
    827.3583    
    805.5386    
    796.4672    
    799.1905    
    805.5456    
    822.8184    
    814.6349    
    814.6373    
    801.9241    
    791.9505    
    802.8364    
    805.5620    
    808.2885    
    798.3066    
    791.9622    
    782.0016    
    787.4370    
    794.6890    
    775.6755    
    782.9163    
    796.5093    
    794.6984    
    793.7940    
    784.7366    
    781.1180    
    762.1390    
    761.2385    
    774.7927    
    762.1461    
    767.5667    
    764.8594    
    761.2502    
    755.8389    
    758.5476    
    759.4519    
    765.7744    
    778.4317    
    785.6746    
    769.3945    
    764.8805    
    758.5640    
    765.7885    
    757.6663    
    749.5533    
    755.8669    
    730.6548    
    739.6530    
    763.0930    
    766.7076    
    750.4683    
    744.1638    
    760.3943    
    743.2678    
    741.4695    
    749.5790    
    741.4742    
    745.0786    
    759.5058    
    776.6738    
    767.6370    
    766.7358    
    778.4903    
    769.4507    
    765.8400    
    773.0708    
    755.9162    
    728.9065    
    737.9020    
    758.6296    
    755.9255    
    747.8140    
    757.7343    
    758.6390    
    748.7223    
    755.0352    
    757.7436    
    755.0399    
    753.2383    
    766.7780    
    769.4906    
    777.6301    
    782.1563    
    778.5396    
    764.0804    
    761.3745    
    766.7944    
    759.5739    
    768.6062    
    775.8396    
    768.6109    
    772.2282    
    782.1798    
    790.3328    
    771.3312    
    767.7191    
    776.7606    
    766.8203    
    775.8607    
    774.9592    
    775.8654    
    777.6770    
    777.6794    
    794.8883    
    780.3982    
    774.9733    
    791.2697    
    782.2150    
    770.4602    
    765.0424    
    784.0328    
    784.0352    
    798.5364    
    820.3398    
    810.3424    
    809.4362    
    806.7140    
    805.8082    
    810.3518    
    805.8129    
    813.9913    
    813.9937    
    824.9104    
    825.8232    
    802.1938    
    811.2769    
    821.2803    
    827.6537    
    822.1945    
    840.4167    
    855.0260    
    854.1150    
    850.4633    
    841.3379    
    839.5163    
    834.9600    
    850.4727    
    866.9319    
    862.3591    
    864.1909    
    885.2661    
    881.5994    
    886.1885    
    888.9440    
    888.0283    
    876.1088    
    867.8680    
    895.3815    
    910.0975    
    922.9974    
    931.3024    
    947.0128    
    937.7712    
    935.0026    
    936.8520    
    929.4686    
    945.1750    
    976.6835    
    972.0447    
    978.5458    
    998.0782    
   1002.7382    
    999.0143    
   1013.9321    
   1039.1716    
   1033.5581    
   1030.7544    
   1043.8611    
   1056.9908    
   1061.6866    
   1060.7499    
   1072.0277    
   1077.6738    
   1094.6333    
   1132.4543    
   1144.7888    
   1148.5896    
   1175.2341    
   1192.4131    
   1204.8447    
   1195.2843    
   1199.1105    
   1199.1128    
   1216.3459    
   1242.2677    
   1244.1938    
   1222.1051    
   1224.0261    
   1257.6790    
   1267.3231    
   1260.5750    
   1274.0845    
   1281.8163    
   1272.1584    
   1284.7213    
   1304.0885    
   1306.0304    
   1317.6787    
   1341.0260    
   1348.8263    
   1353.7059    
   1353.7083    
   1342.0099    
   1339.0894    
   1360.5493    
   1400.7034    
   1424.3077    
   1419.3872    
   1434.1682    
   1431.2125    
   1431.2150    
   1422.3501    
   1431.2197    
   1446.0243    
   1485.6409    
   1544.4535    
   1553.4675    
   1560.4860    
   1590.6316    
   1620.8967    
   1625.9550    
   1637.0916    
   1655.3488    
   1685.8740    
   1700.1624    
   1731.8938    
   1749.3524    
   1764.7910    
   1782.3254    
   1808.1843    
   1820.6294    
   1819.5939    
   1814.4105    
   1810.2665    
   1822.7142    
   1829.9867    
   1819.6057    
   1806.1317    
   1806.1342    
   1798.8898    
   1774.0988    
   1766.8850    
   1754.5323    
   1716.5669    
   1700.2097    
   1685.9261    
   1663.5331    
   1618.9420    
   1592.7162    
   1577.6279    
   1552.5460    
   1527.5468    
   1489.7037    
   1434.2748    
   1389.0455    
   1366.5330    
   1368.4902    
   1346.0380    
   1307.1471    
   1279.0756    
   1243.4093    
   1193.5645    
   1170.6705    
   1156.3976    
   1133.6154    
   1103.3441    
   1077.8962    
   1031.9287    
    985.3080    
    954.6951    
    936.2030    
    950.0723    
    950.0747    
    952.8534    
    941.7560    
    926.9845    
    906.7191    
    863.6027    
    830.7427    
    818.0036    
    816.1872    
    803.4725    
    780.8187    
    800.7551    
    792.5960    
    784.4463    
    769.0738    
    758.2417    
    716.8554    
    699.8279    
    698.9349    
    694.4630    
    691.7819    
    689.1013    
    677.4903    
    673.0305    
    667.6821    
    663.2285    
    646.3207    
    645.4340    
    648.1035    
    638.3307    
    623.2510    
    632.1216    
    638.3379    
    618.8277    
    614.4028    
    625.0355    
    615.2930    
    609.1003    
    607.3333    
    601.1470    
    580.8505    
    590.5542    
    598.5035    
    574.6906    
    563.2532    
    582.6257    
    568.5356    
    560.6229    
    557.9888    
    535.1786    
    523.8007    
    522.0534    
    536.9379    
    542.2002    
    541.3256    
    552.7346    
    547.4703    
    536.9498    
    535.2001    
    543.9683    
    530.8255    
    537.8358    
    544.8527    
    541.3470    
    534.3382    
    524.7108    
    532.5914    
    534.3453    
    542.2359    
    536.9784    
    519.4755    
    526.4754    
    533.4812    
    518.6083    
    515.1147    
    515.9911    
    502.8967    
    487.2128    
    473.2993    
    481.9962    
    487.2200    
    493.3187    
    513.3867    
    510.7690    
    511.6443    
    520.3857    
    524.7609    
    516.8938    
    516.0221    
    523.8936    
    504.6753    
    488.9878    
    488.9902    
    485.5103    
    475.0754    
    488.1265    
    488.9998    
    490.7437    
    487.2629    
    508.1879    
    511.6825    
    495.1094    
    506.4490    
    516.0579    
    506.4538    
    492.5052    
    502.0958    
    491.6387    
    480.3254    
    488.1599    
    480.3302    
    471.6400    
    477.7262    
    492.5243    
    497.7552    
    503.8623    
    519.5853    
    531.8372    
    521.3386    
    523.9653    
    526.5923    
    502.1317    
    505.6240    
    530.9758    
    537.1097    
    537.1121    
    531.8588    
    535.3647    
    523.1119    
    530.9902    
    532.7442    
    534.4981    
    543.2653    
    546.7765    
    548.5342    
    542.3959    
    563.4728    
    564.3547    
    562.5981    
    567.8781    
    587.2612    
    577.5673    
    576.6886    
    583.7413    
    597.8633    
    588.1554    
    580.2225    
    583.7509    
    589.9275    
    607.5981    
    623.5374    
    647.5082    
    649.2888    
    656.4092    
    667.9922    
    668.8863    
    684.9548    
    693.8974    
    682.2797    
    675.1398    
    692.1159    
    721.6889    
    715.4091    
    707.3421    
    713.6201    
    743.2776    
    770.3395    
    788.4360    
    811.1163    
    814.7535    
    816.5737    
    825.6727    
    813.8517    
    805.6796    
    817.4926    
    826.5927    
    852.1269    
    875.9148    
    893.3462    
    892.4302    
    908.9791    
    919.1111    
    924.6442    
    935.7207    
    947.7379    
    960.7007    
    956.0722    
    971.8324    
    989.4856    
    983.9099    
    986.7008    
    997.8677    
    983.9171    
    973.7031    
    964.4295    
    967.2139    
    977.4233    
   1014.6602    
   1012.7968    
    996.9562    
    996.0276    
    997.8917    
    990.4495    
    968.1600    
    971.8732    
    968.1649    
    957.0464    
    953.3453    
    954.2730    
    945.9485    
    929.3238    
    918.2615    
    925.6386    
    914.5817    
    900.7833    
    883.3398    
    885.1765    
    891.6031    
    895.2790    
    880.5986    
    861.3724    
    858.6314    
    873.2747    
    873.2771    
    871.4476    
    876.0301    
    847.6818    
    817.6199    
    837.6519    
    844.0385    
    822.1749    
    820.3576    
    822.1797    
    810.3638    
    824.0040    
    827.6473    
    822.1893    
    807.6489    
    814.0103    
    823.1060    
    799.4879    
    787.7079    
    785.8995    
    779.5665    
    767.8167    
    776.8572    
    781.3830    
    760.6010    
    757.8967    
    740.7788    
    720.1075    
    720.1099    
    721.9075    
    706.6622    
    697.7096    
    693.2382    
    686.9821    
    665.5657    
    646.8760    
    630.0059    
    604.3278    
    598.1445    
    601.6810    
    585.7929    
    578.7434    
    575.2223    
    559.3895    
    527.8200    
    512.9592    
    510.3417    
    515.5847    
    486.8074    
    485.9398    
    470.2919    
    453.8093    
    449.4793    
    443.4208    
    421.8166    
    406.3002    
    405.4417    
    399.4183    
    399.4207    
    409.7558    
    404.5901    
    387.3901    
    372.8014    
    371.0893    
    366.8063    
    359.9572    
    352.2595    
    352.2619    
    339.4476    
    330.9177    
    330.9201    
    331.7755    
    340.3112    
    339.4597    
    318.1490    
    300.2945    
    312.1968    
    323.2657    
    296.0561    
    294.3612    
    307.1044    
    287.5797    
    262.1872    
    257.9657    
    259.6573    
    225.9428    
    224.2635    
    231.8373    
    238.5764    
    254.6025    
    257.1379    
    255.4517    
    242.7997    
    253.7678    
    263.0615    
    251.2408    
    255.4638    
    247.8709    
    225.9743    
    212.5321    
    222.6161    
    210.8577    
    204.1484    
    237.7702    
    246.2013    
    231.0396    
    219.2686    
    222.6331    
    223.4758    
    215.9153    
    211.7190    
    212.5611    
    201.6567    
    218.4452    
    228.5370    
    230.2221    
    215.9323    
    203.3460    
    203.3484    
    192.4578    
    204.1920    
    203.3557    
    195.8148    
    199.1688    
    216.7913    
    226.8809    
    209.2399    
    213.4397    
    196.6672    
    192.4821    
    201.7004    
    196.6745    
    185.7934    
    164.9095    
    189.1455    
    204.2284    
    198.3627    
    203.3945    
    203.3970    
    185.8104    
    192.5087    
    185.8153    
    180.7994    
    174.9518    
    196.7060    
    199.2222    
    179.1374    
    181.6478    
    192.5282    
    183.3254    
    179.1471    
    179.9856    
    176.6449    
    144.1291    
    141.6359    
    155.7911    
    153.2941    
    158.2962    
    168.3083    
    189.2062    
    180.8431    
    174.9955    
    178.3403    
    164.9824    
    158.3132    
    151.6499    
    148.3216    
    136.6784    
    145.8295    
    153.3257    
    142.5063    
    154.1633    
    154.9990    
    160.0022    
    169.1815    
    178.3719    
    181.7183    
    164.1821    
    170.8612    
    168.3593    
    157.5184    
    171.7032    
    165.0286    
    141.7065    
    138.3826    
    137.5535    
    145.8733    
    125.9293    
    130.0826    
    135.0699    
    131.7489    
    152.5462    
    167.5562    
    163.3867    
    143.3967    
    163.3916    
    152.5583    
    151.7277    
    161.7310    
    161.7335    
    153.4012    
    137.5925    
    123.4762    
    125.9683    
    105.2485    
    123.4836    
    142.5939    
    140.9331    
    152.5876    
    166.7630    
    173.4444    
    159.2614    
    159.2638    
    158.4325    
    140.1184    
    158.4374    
    162.6090    
    162.6115    
    142.6232    
    150.1161    
    150.9509    
    135.1479    
    152.6217    
    163.4598    
    155.1257    
    144.3044    
    150.1332    
    153.4670    
    140.9843    
    153.4719    
    144.3166    
    119.3992    
    118.5723    
    144.3239    
    144.3264    
    126.8765    
    143.4991    
    149.3273    
    153.4939    
    171.0100    
    166.8386    
    139.3526    
    129.3843    
    135.2016    
    141.0234    
    140.1941    
    146.0197    
    145.1898    
    134.3827    
    147.6919    
    141.8699    
    128.5758    
    113.6477    
    129.4112    
    140.2161    
    126.0952    
    135.2334    
    123.6105    
    116.9778    
    145.2192    
    151.0486    
    141.8968    
    124.4522    
    123.6252    
    116.1634    
    110.3655    
    126.9523    
    131.1061    
    128.6174    
    126.9597    
    123.6423    
    136.9321    
    126.1368    
    138.5998    
    133.6153    
    126.9743    
    121.9974    
    121.1702    
    111.2258    
    102.9490    
    112.0593    
    112.0617    
     96.3392    
    116.2099    
    124.5061    
    122.0195    
    113.7309    
    117.8780    
    127.0062    
    111.2528    
    122.0317    
    121.2045    
    111.2601    
     97.1931    
    107.1240    
    110.4390    
     93.8937    
    107.1314    
    110.4464    
     99.6887    
    117.0807    
    116.2540    
    115.4274    
    112.9438    
    135.3510    
    140.3410    
    128.7105    
    139.5143    
    112.1279    
     91.4461    
    106.3352    
    114.6211    
    103.0299    
     81.5480    
    107.1731    
    120.4343    
    103.0397    
    117.1224    
    115.4667    
    127.0823    
    114.6432    
    116.3031    
    112.9905    
     94.7862    
    108.8540    
    105.5446    
     74.1570    
     71.6869    
     81.5849    
     93.1482    
     72.5186    
     81.5923    
     88.1989    
     75.8234    
     87.3778    
     85.7287    
    100.6064    
     77.4822    
     78.3095    
     78.3120    
     69.2472    
     83.2671    
     97.3135    
    100.6236    
     99.7993    
    104.7660    
    100.6310    
     77.5068    
     75.0356    
     77.5117    
     68.4479    
     81.6414    
     69.2767    
     69.2791    
     54.4676    
     57.7596    
     78.3538    
     72.5850    
     91.5666    
     75.0627    
     56.9493    
     60.2424    
     70.9489    
     82.4963    
     53.6699    
     63.5443    
     67.6639    
     44.6394    
     51.2139    
     52.0384    
     47.1110    
     49.5780    
     67.6787    
     70.9760    
     63.5664    
     74.2776    
     69.3358    
     62.7506    
     69.3407    
     84.1862    
     89.9688    
     57.8237    
     72.6466    
     81.7203    
     62.7678    
     60.3015    
     67.7133    
     55.3713    
     43.8705    
     54.5538    
     60.3139    
     43.0567    
     59.4959    
     52.9197    
     45.5273    
     48.8154    
     57.8607    
     65.2695    
     43.0740    
     56.2229    
     60.3385    
     58.6958    
     70.2240    
     66.1079    
     54.5909    
     36.5264    
     41.4518    
     32.4315    
     16.0553    
     28.3383    
     43.1037    
     45.5693    
     40.6462    
     39.0072    
     45.5767    
     38.1920    
     50.5104    
     39.8378    
     18.5345    
     37.3814    
     43.1284    
     47.2369    
     39.8502    
     50.5278    
     45.6015    
     23.4635    
     43.9644    
     48.8945    
     34.1230    
     44.7925    
     55.4775    
     66.1771    
     46.4427    
     45.6237    
     31.6784    
     19.3950    
     25.9475    
     21.8554    
     30.0488    
     37.4309    
     32.5131    
     44.8222    
     39.8997    
     57.1543    
     46.4724    
     32.5255    
     27.6104    
     27.6129    
     34.1725    
      3.0797    
     18.6137    
     27.6228    
      1.4538    
     16.9849    
     21.8976    
     33.3698    
     30.0934    
     39.1161    
     44.0436    
     30.1008    
     39.9443    
     24.3712    
     21.0986    
     36.6700    
     43.2374    
     45.7030    
     17.0171    
     30.1206    
     26.8456    
     16.2064    
     30.1281    
     30.9503    
     31.7726    
     26.0392    
     30.1380    
     29.3214    
      0.9356    
     16.2262    
     14.5930    
     24.4159    
     28.5142    
     25.2399    
     36.7171    
     24.4258    
     48.2142    
     55.6139    
     26.0715    
     21.9794    
     35.0919    
     33.4542    
     12.1697    
     23.6271    
     36.7420    
     30.1852    
     47.4179    
     53.1724    
     45.7800    
     56.4657    
     58.9361    
     63.0527    
     37.5823    
     35.9440    
     45.7949    
     18.7453    
     44.1579    
     49.9098    
     49.9123    
     33.4989    
     40.8843    
     55.6736    
     45.8148    
     61.4367    
     50.7486    
     47.4652    
     51.5755    
     49.9347    
     71.3302    
     66.3906    
     62.2772    
     65.5720    
     26.9749    
     23.7018    
     26.9799    
     63.1124    
     67.2316    
     60.6486    
     59.0058    
     40.1108    
     49.1453    
     40.9366    
     34.3763    
     34.3788    
     38.4825    
     56.5553    
     42.5904    
     60.6735    
     68.9086    
     52.4548    
     59.0357    
     68.9161    
     75.5113    
     59.8655    
     55.7558    
     53.2919    
     30.3122    
     44.2600    
     38.5174    
     37.6993    
     43.4463    
     48.3760    
     58.2429    
     49.2027    
     53.3143    
     57.4278    
     46.7459    
     68.1327    
     72.2541    
     63.1972    
     45.1132    
     49.2226    
     67.3214    
     46.7634    
     56.6277    
     53.3418    
     58.2779    
     70.6288    
     70.6313    
     68.1626    
     52.5322    
     50.0694    
     50.8932    
     35.2988    
     50.8982    
     53.3668    
     56.6577    
     41.0514    
     29.5730    
     40.2356    
     39.4174    
     44.3449    
     34.5011    
      3.4083    
      5.0440    
