  11100 12  1 ##YSAG8.SP PUC001 BMW  .000 # S1 060593 00.00  01        
  PROGRAM PE-FILECONVERT MAC VERSION 1.0                               
  USER BMW DATE & TIME  1993 06 12 23.51 30.00   10.5000    295K U     
 AU1 TM  50     0     0 YSAG              .340000 -  .375000 .0001     
 FILE NAME ON IBM-PC  = YSAG8.SP          ON MAC= P12063.01            
 NO_POINTS  =   351.    pts   DATA_INTV =  .00010 nm                   
 MIN_LAMBDA =   .340000 _m     MIN_DATA =    .24840                    
 MAX_LAMBDA =   .375000 _m     MAX_DATA =    .36800                    
 SCANSPEED  = 15.000000 nm/min SLITWIDTH=   .20000 nmITA =   0.        
       RESP =    .500  sec        ISMS =   0.       DATE=93/05/06      
       INST = 509.                    ? =   0.                         
 3:51:30  12-06-1993                                                   
  This spectra is part of Database LASERS
 Database LASERS was created by Pat Cross working 
 at NASA Langley Research Center, Internal Operations Group,
 Aerospace Electronics Systems Division, Remote Sensing 
 Technology Branch. phone:(757)864-1633   fax:(757)864-7894 
     e-mail p.l.cross@larc.nasa.gov 
     homepage http://aesd.larc.nasa.gov/laser/dbmain.htm
  EOH.(1X,F11.4)                                                       
   351.         
    645.7702    
      0.0001    
     69.4882    
    341.0514    
    330.5570    
    141.4840    
      0.0001    
     80.2593    
    213.3604    
    312.7602    
      0.0001    
    134.9850    
     70.6323    
      0.0001    
    274.6499    
      6.9472    
    199.6763    
    325.6052    
     17.5352    
      0.0001    
    118.6551    
    338.7780    
    376.1182    
      0.0001    
      0.0001    
    223.2849    
    246.8734    
    358.3888    
    233.3285    
    331.0630    
    219.8448    
    116.1385    
    219.8161    
    290.2462    
      0.0001    
    143.0602    
    133.1396    
    176.4349    
    420.8172    
    183.1326    
      0.0001    
    309.6997    
    426.7818    
    450.0937    
     74.3339    
      0.0001    
    319.2440    
      0.0001    
      0.0001    
    582.9771    
    498.7787    
    582.3286    
    186.7220    
    137.5418    
     29.8825    
      0.0001    
      0.0001    
    222.8726    
     75.9798    
     72.8500    
    239.2128    
    203.2390    
    239.1725    
      0.0001    
    548.3187    
     86.5048    
    206.5441    
    235.8135    
    310.7175    
    138.5859    
     32.3877    
    242.2390    
    421.3071    
    307.0700    
    271.3134    
     81.1943    
      0.0001    
      0.0001    
     46.4062    
    242.0711    
    361.5404    
      0.0001    
    341.9067    
    461.6103    
    335.2523    
    107.8086    
     72.9434    
    101.6395    
    181.2563    
      0.6256    
    200.4324    
    159.1249    
      0.0001    
    318.4104    
    225.9203    
     14.2969    
    487.9419    
    433.1466    
    584.1091    
    235.4169    
    327.4047    
    121.9055    
    106.2935    
    330.3236    
    352.4329    
    279.5400    
    119.2080    
    406.0161    
    613.1699    
    443.7930    
    434.0944    
    500.5852    
    592.7296    
    430.4232    
    484.0613    
    607.7562    
    540.6819    
    379.3933    
    288.3776    
    404.2707    
    470.2023    
    733.1659    
    621.4294    
    719.5963    
    608.1290    
    409.6849    
    683.4742    
    737.0541    
    663.7482    
    484.0997    
    650.4111    
    596.5505    
    674.9536    
    696.6707    
    649.0555    
    284.5339    
    971.3885    
    827.7221    
    830.4116    
    769.9275    
   1000.8374    
   1182.6691    
   1031.4453    
    850.0629    
    796.0391    
   1379.3520    
   1156.3891    
   1513.7791    
   1425.0690    
   1453.2400    
   1722.9782    
   2250.9262    
   2387.9900    
   2505.3242    
   2513.6540    
   3167.4682    
   3531.7202    
   3691.1880    
   4332.3120    
   3852.2534    
   4131.7930    
   4169.0624    
   4588.2910    
   4679.1320    
   4739.7970    
   4892.3422    
   4467.7250    
   4784.8310    
   4580.3110    
   4422.9790    
   3771.0820    
   3365.8290    
   2893.9520    
   2683.6240    
   2275.7663    
   2145.2190    
   1756.0843    
   1758.0803    
   1586.9941    
   1794.2573    
   2186.6930    
   2280.5920    
   2474.5180    
   3230.0080    
   3721.8990    
   4409.1630    
   4519.8701    
   4314.0080    
   3959.4630    
   3760.2750    
   3326.4810    
   2991.1980    
   2850.1430    
   2804.2421    
   2604.9902    
   2513.5913    
   2168.0580    
   2150.3122    
   2119.6750    
   1574.0470    
   1885.8583    
   1697.6342    
   1724.8540    
   1532.3720    
   1509.5472    
   1455.7222    
   1377.4112    
   1491.0394    
   1573.9940    
   1482.8962    
   1715.5330    
   1598.8660    
   1788.4564    
   1615.3980    
   2006.8182    
   2065.7504    
   2271.9570    
   2493.0890    
   2371.6291    
   2231.9170    
   1853.8361    
   1668.7860    
   1732.8350    
   1561.6281    
   1392.1933    
   1369.9960    
   1580.0790    
   1210.9530    
   1099.1574    
   1305.9953    
   1692.7733    
   1016.7710    
   1379.1274    
   1454.0610    
   1226.8230    
   1549.5231    
   1267.3180    
   1608.5020    
   1464.5920    
   1490.9220    
   1559.7420    
   1586.0834    
   1551.6750    
   1450.9274    
   1465.0872    
   1473.2050    
   1265.6120    
    943.1255    
   1151.3920    
    942.0936    
   1026.4543    
    958.5877    
    746.2141    
    622.2495    
    768.5621    
    490.5687    
    773.5665    
    524.3075    
    675.2301    
    597.8531    
    686.0574    
    512.2094    
    748.3629    
   1004.5330    
    497.5398    
    957.1276    
    844.3098    
    698.1157    
    786.1997    
    782.9570    
    637.5917    
    833.5901    
    468.1381    
    453.9943    
    456.6501    
    712.5705    
    395.0373    
    514.9410    
    612.9249    
    419.7773    
    461.4033    
    525.3893    
    223.4067    
    352.8931    
    344.5528    
    264.6629    
    207.1087    
    133.4609    
    141.7288    
    226.3741    
    114.7336    
    357.9133    
     82.4508    
      0.0001    
      0.0001    
      4.6690    
     93.7882    
    472.8383    
    272.8947    
    313.7504    
      0.0001    
    221.3483    
    251.1916    
    113.5000    
    251.2238    
    151.3770    
    100.4239    
    291.8474    
    305.3683    
    140.9911    
    354.0613    
    210.9610    
    208.3208    
     77.2736    
      0.0001    
      3.1508    
    413.2058    
    163.1059    
    429.2492    
    163.2571    
      0.0001    
    286.3226    
    246.1788    
    238.1931    
      0.0001    
      0.0001    
      0.0001    
    474.0592    
    182.5423    
    350.3582    
      0.0001    
    382.3399    
    267.6597    
    350.1639    
    320.8188    
    344.7342    
    140.9167    
    472.6975    
    288.8894    
    107.0859    
    464.2858    
    286.2258    
    341.7726    
      0.0001    
      6.0420    
    365.4552    
    246.7400    
    482.0071    
      0.0001    
    270.4382    
     84.9971    
