  11100 12  1 ##YSAG12.S PUC001 BMW  .000 # S1 060593 00.00  05        
  PROGRAM PE-FILECONVERT MAC VERSION 1.0                               
  USER BMW DATE & TIME  1993 06 12 23.58 53.00   10.5000    295K U     
 AU1 TM  50     0     0 YSAG             1.050000 - 1.350000 .0002     
 FILE NAME ON IBM-PC  = YSAG12.SP         ON MAC= P12063.05            
 NO_POINTS  =  1501.    pts   DATA_INTV =  .00020 nm                   
 MIN_LAMBDA =  1.050000 _m     MIN_DATA =    .56970                    
 MAX_LAMBDA =  1.350000 _m     MAX_DATA =    .78560                    
 SCANSPEED  = 15.000000 nm/min SLITWIDTH=   .20000 nmITA =   0.        
       RESP =    .500  sec        ISMS =   0.       DATE=93/05/06      
       INST = 509.                    ? =   0.                         
 3:58:53  12-06-1993                                                   
  This spectra is part of Database LASERS
 Database LASERS was created by Pat Cross working 
 at NASA Langley Research Center, Internal Operations Group,
 Aerospace Electronics Systems Division, Remote Sensing 
 Technology Branch. phone:(757)864-1633   fax:(757)864-7894 
     e-mail p.l.cross@larc.nasa.gov 
     homepage http://aesd.larc.nasa.gov/laser/dbmain.htm
  EOH.(1X,F11.4)                                                       
  1501.         
      0.0001    
      0.0001    
      0.0001    
      0.0001    
     82.1817    
     51.0855    
      0.0001    
      0.0001    
     66.9326    
      0.5041    
      7.5878    
      0.0001    
     10.8750    
     31.5655    
     22.3291    
     23.9705    
     74.6416    
    144.5828    
     20.7446    
      0.0001    
     62.1435    
     22.9645    
      0.0001    
     15.3797    
      0.0001    
      0.0001    
     12.1632    
     95.4518    
     78.0112    
     55.1465    
      5.1619    
     55.7170    
     73.6877    
    124.4069    
      0.0001    
      5.2323    
     25.8746    
     38.3763    
     29.1525    
     36.2286    
     73.2147    
     15.0820    
     81.9342    
     86.2938    
     52.5836    
     84.1361    
     12.4393    
     24.9254    
     34.6999    
     77.0901    
      5.4469    
     93.9788    
     76.5748    
     67.3416    
     90.7285    
    133.2128    
      0.0001    
     92.9280    
     86.4113    
     82.6150    
     76.0972    
     15.3501    
     68.5049    
     75.5729    
     66.3549    
     81.5694    
     66.9143    
     22.4723    
     64.7646    
     85.4020    
     76.1781    
      1.9597    
    133.8176    
     75.6561    
     25.8019    
     57.2314    
    153.9806    
     44.2508    
     54.0125    
     71.9121    
     27.5016    
    137.6550    
     44.3042    
     86.5926    
     25.9326    
     60.0432    
    213.9723    
     66.0211    
     64.9468    
     93.6878    
     19.5206    
     61.7243    
     76.9008    
     35.2322    
     28.7568    
      0.0001    
    102.4099    
    125.7531    
     92.1203    
    112.7291    
    111.6499    
      7.7843    
     25.6097    
     21.8426    
     36.9737    
     79.1614    
     18.6398    
     63.4876    
     27.3003    
     88.3992    
      3.5971    
     26.8012    
     36.5301    
     30.0667    
     69.5053    
     52.2182    
      0.0001    
      0.0001    
     11.2499    
     47.9381    
     41.4732    
     67.3986    
     74.4342    
     51.7605    
      4.8723    
     33.4386    
      0.0001    
      0.0001    
      0.0001    
     10.3252    
     52.3696    
     53.9943    
      0.0001    
      0.0001    
     77.7672    
     47.0287    
     29.7995    
     61.0637    
      0.0001    
      0.0001    
      0.0001    
      0.0001    
     90.7856    
     14.2719    
     32.0409    
      1.4010    
      0.0001    
      1.9676    
     33.1611    
      0.0001    
      0.0001    
     29.9701    
     18.1512    
     14.4059    
      0.0001    
      0.0001    
     56.9262    
     20.9038    
      9.1030    
     34.9035    
      0.0001    
     19.3456    
      0.0001    
      0.0001    
      0.0001    
      0.0001    
     11.3544    
      0.0001    
     89.8787    
     86.1159    
     47.3838    
      0.0001    
      0.0001    
      0.0001    
      0.0001    
      0.0001    
      0.0001    
      0.0001    
      0.0001    
      0.0001    
     36.7473    
      0.0001    
     18.5353    
     25.5165    
      0.0001    
      0.0001    
      0.0001    
      0.0001    
      0.0001    
      0.0001    
      0.0001    
     62.6253    
     50.8282    
     55.1249    
     86.2847    
      0.0001    
      0.0001    
      0.0001    
      0.0001    
      0.0001    
      0.0001    
      0.0001    
     50.9227    
      0.0001    
     46.1217    
     96.0223    
      1.1910    
     69.7366    
      7.0948    
      0.0001    
    133.6827    
      0.0001    
      0.0001    
      4.4942    
      0.0001    
      0.0001    
    162.2220    
     93.9525    
     28.6022    
      0.0001    
      0.0001    
     65.5677    
     27.0445    
      0.0001    
      0.0001    
      0.0001    
     20.1491    
     59.1959    
      0.0001    
    124.0698    
     77.4172    
     33.5671    
    112.8102    
     20.7708    
     51.7685    
    101.5630    
      9.6016    
    126.2411    
    117.1289    
     86.5835    
    144.5062    
    146.1124    
     83.3949    
    122.5077    
    110.7192    
     88.2350    
     33.7286    
     40.6824    
     71.6705    
    142.9070    
    160.6224    
    159.5450    
    112.8993    
    195.0131    
    169.7521    
     98.9973    
    194.4660    
    145.0667    
    154.7223    
    159.0104    
    279.0366    
    245.5830    
    182.6340    
    141.3273    
    201.9687    
    246.6331    
    146.1559    
    233.6928    
    203.0347    
    137.5910    
    187.4489    
    164.9176    
    230.9783    
    211.0734    
    183.1522    
    187.4444    
    264.3267    
    230.9473    
    278.3235    
    293.4084    
    227.7011    
    245.4438    
    257.8156    
    278.2670    
    269.1059    
    224.9943    
    366.7931    
    292.7801    
    264.7642    
    314.8734    
    308.3831    
    301.8972    
    290.0317    
    243.2152    
    279.7785    
    265.2373    
    272.2255    
    308.8412    
    291.5822    
    341.7137    
    400.0974    
    247.9937    
    471.1147    
    396.7853    
    414.6376    
    367.5478    
    461.2358    
    349.1509    
    369.6521    
    411.8241    
    435.0956    
    382.5738    
    354.4684    
    404.7010    
    422.5421    
    370.0735    
    436.5859    
    394.8901    
    315.5730    
    333.3308    
    334.9299    
    425.6393    
    405.6056    
    366.6982    
    446.6880    
    432.0444    
    517.7267    
    524.7650    
    482.9095    
    419.5139    
    431.9329    
    414.6028    
    543.6465    
    431.3198    
    408.5910    
    521.2571    
    541.8861    
    532.6114    
    479.9322    
    373.4273    
    401.9944    
    479.3047    
    502.5924    
    539.4847    
    478.6806    
    447.8026    
    465.6319    
    461.8197    
    425.5779    
    557.2292    
    520.8032    
    565.8657    
    567.4645    
    498.4839    
    554.3490    
    545.0800    
    576.5702    
    619.0097    
    620.6037    
    624.9265    
    612.8979    
    535.6566    
    588.8673    
    525.2878    
    605.6653    
    593.6537    
    619.7487    
    539.8035    
    576.6919    
    537.5728    
    631.5772    
    597.7852    
    418.0376    
    473.5844    
    646.1320    
    617.7678    
    559.5815    
    550.3286    
    644.3328    
    667.7351    
    614.8537    
    714.6202    
    721.6809    
    540.9224    
    722.1337    
    652.7667    
    681.6149    
    694.1248    
    638.4804    
    661.8556    
    791.9330    
    651.4192    
    767.7075    
    608.3776    
    566.5627    
    747.8492    
    774.0797    
    712.7769    
    695.2659    
    669.6000    
    723.0075    
    773.8136    
    636.2793    
    798.9136    
    751.2291    
    813.0624    
    842.1013    
    764.2055    
    809.6041    
    778.3262    
    697.9861    
    770.5599    
    736.6257    
    740.9489    
    756.1946    
    752.3168    
    702.0756    
    796.5091    
    683.4718    
    807.9031    
    817.7123    
    669.1978    
    763.4338    
    732.2681    
    736.5867    
    806.4794    
    780.7177    
    779.5680    
    857.8249    
    780.0081    
    819.8918    
    826.9561    
    730.2000    
    778.1594    
    823.4954    
    672.3990    
    774.7324    
    675.5701    
    720.6516    
    771.2989    
    849.4503    
    851.0328    
    718.8347    
    701.3829    
    751.9553    
    775.3579    
    638.3090    
    672.4202    
    636.0633    
    691.8784    
    772.3665    
    676.0452    
    797.3591    
    758.0422    
    713.3732    
    815.7617    
    831.0140    
    848.9992    
    771.4029    
    572.4293    
    706.5806    
    757.0935    
    701.6020    
    779.3221    
    759.1198    
    747.0959    
    860.5079    
    837.4858    
    686.6835    
    701.8247    
    687.1391    
    710.4091    
    690.3032    
    778.7969    
    785.8211    
    754.7557    
    761.7735    
    891.5809    
    773.0935    
    837.3445    
    808.9242    
    731.6451    
    872.1304    
    778.2730    
    785.2958    
    770.5563    
    747.6863    
    803.6451    
    887.0759    
    877.7195    
    934.0338    
    801.7884    
    836.0585    
    870.3763    
    839.2120    
    827.1685    
    864.1868    
    824.8718    
    796.5174    
    825.3045    
    900.5500    
    858.4341    
    917.3763    
    905.2797    
   1019.2630    
    933.0513    
    923.6783    
    889.7322    
    864.0181    
    824.7449    
    976.5504    
    890.5756    
   1029.1263    
    956.6120    
    928.0895    
   1009.1210    
   1002.4683    
    998.5497    
    915.2594    
    878.6279    
   1008.7664    
   1007.5950    
    943.4226    
   1043.7040    
    968.4629    
   1055.1004    
   1120.0332    
   1124.3684    
   1136.9840    
   1105.4511    
   1057.4692    
   1183.1680    
   1104.6600    
   1095.2130    
   1094.0320    
   1062.5874    
   1179.9681    
   1278.5904    
   1185.8792    
   1298.4210    
   1255.5270    
   1262.6542    
   1272.5560    
   1229.7350    
   1225.7680    
   1349.6304    
   1198.4590    
   1363.9300    
   1401.8131    
   1403.3800    
   1508.6612    
   1420.5050    
   1458.4760    
   1566.8503    
   1484.0474    
   1592.5550    
   1478.7730    
   1494.3760    
   1560.6140    
   1627.0712    
   1693.7540    
   1732.2183    
   1748.0062    
   1639.0020    
   1736.9290    
   1727.1370    
   1762.8084    
   1855.6300    
   1748.8900    
   1873.0600    
   1857.4760    
   1916.2822    
   1943.6740    
   1896.5023    
   2041.7614    
   2135.8662    
   2056.4360    
   2118.7194    
   2189.9100    
   2110.2702    
   2239.6050    
   2168.4721    
   2170.0383    
   2302.6620    
   2248.7810    
   2270.7560    
   2368.8290    
   2201.1040    
   2366.0952    
   2347.1582    
   2328.2370    
   2514.9480    
   2422.2510    
   2412.0610    
   2534.4160    
   2476.9682    
   2584.8910    
   2601.2741    
   2588.0234    
   2705.4850    
   2603.0012    
   2604.5683    
   2740.0090    
   2693.8630    
   2773.0180    
   2732.7650    
   2791.1010    
   2750.8144    
   2923.3471    
   2807.7651    
   2902.3791    
   2849.8581    
   2938.6403    
   2937.1874    
   2971.9270    
   2988.5950    
   2956.9511    
   3006.8330    
   3141.9140    
   3079.6340    
   3053.9011    
   3019.1280    
   3087.3544    
   3085.8803    
   3081.3742    
   3082.9360    
   3005.7710    
   3040.6020    
   2981.7250    
   3116.5050    
   3133.2583    
   3122.6650    
   3099.9330    
   3025.7660    
   2997.1180    
   3119.7863    
   3021.3774    
   3032.0070    
   2964.1623    
   2923.5990    
   2889.1274    
   2890.6890    
   2889.2530    
   2896.8100    
   2814.5490    
   2720.7604    
   2760.9990    
   2685.2890    
   2689.8140    
   2546.5630    
   2633.6850    
   2526.1430    
   2483.6470    
   2479.3390    
   2507.3110    
   2418.0420    
   2402.0690    
   2310.4123    
   2230.7820    
   2142.8520    
   2127.1403    
   2048.3020    
   2127.3720    
   2031.3650    
   1992.8930    
   1974.4690    
   1901.9864    
   1903.5460    
   1811.5430    
   1742.5230    
   1749.7150    
   1563.3550    
   1601.2260    
   1588.8093    
   1528.9932    
   1524.9782    
   1482.0384    
   1411.5051    
   1435.2090    
   1384.1950    
   1391.2750    
   1398.3552    
   1245.7202    
   1247.2770    
   1224.1662    
   1217.5050    
   1208.1120    
   1119.5974    
   1099.3790    
   1095.4904    
   1064.4421    
   1019.9012    
   1018.7490    
    998.6515    
    965.0767    
    947.7393    
    881.9905    
    910.4355    
    858.2405    
    902.7820    
    993.2944    
    828.0447    
    875.1863    
    809.7310    
    926.6806    
    879.8406    
    833.1216    
    807.9091    
    846.9434    
    819.0397    
    919.8461    
    782.0485    
    861.1837    
    889.5621    
    800.0514    
    839.0447    
    808.4954    
    834.1144    
    744.8964    
    685.2912    
    740.0069    
    829.6088    
    740.4425    
    875.5477    
    911.9719    
    897.4115    
    971.5439    
    908.5612    
    955.7978    
    954.6553    
    891.7439    
   1000.8460    
   1083.4560    
   1117.5230    
   1238.8010    
   1314.1912    
   1337.6730    
   1571.0780    
   1647.7520    
   1638.1480    
   1858.2830    
   1924.7650    
   2136.7541    
   2316.4272    
   2401.8630    
   2813.6772    
   3005.7612    
   3202.7934    
   3524.4230    
   3695.8000    
   3947.1140    
   4058.9721    
   4184.1933    
   4275.0300    
   4433.8520    
   4428.9530    
   4491.8060    
   4486.8850    
   4462.6000    
   4570.9230    
   4472.1411    
   4612.9910    
   4660.1113    
   4746.5910    
   4856.4820    
   4940.5170    
   5151.5390    
   5086.3334    
   4955.0654    
   5126.1030    
   5067.6540    
   4939.8560    
   4786.6900    
   4608.7650    
   4301.0541    
   4191.0820    
   4062.8234    
   3760.7500    
   3518.5454    
   3188.8160    
   3046.2822    
   3017.9400    
   2906.3684    
   2857.5273    
   2676.4300    
   2590.2190    
   2609.2744    
   2476.9180    
   2345.5070    
   2361.4530    
   2262.3770    
   2238.1230    
   2236.8010    
   2109.9360    
   2159.8830    
   2093.1252    
   2049.2622    
   2050.8020    
   2058.0092    
   2008.5910    
   1990.3520    
   1932.6671    
   1984.9493    
   1944.1910    
   1895.0950    
   1933.1950    
   1912.2250    
   1821.2044    
   1901.2500    
   1883.1350    
   1778.3180    
   1793.8121    
   1803.7343    
   1757.8330    
   1751.0110    
   1658.0563    
   1754.0840    
   1636.2010    
   1693.1864    
   1792.1544    
   1646.3460    
   1645.1151    
   1591.3520    
   1557.0273    
   1569.5920    
   1607.0110    
   1416.1410    
   1508.1352    
   1457.5373    
   1450.8570    
   1422.2822    
   1287.5651    
   1297.2520    
   1279.7803    
   1221.7040    
   1239.4814    
   1241.0180    
   1150.7152    
   1055.4904    
   1089.2280    
   1026.4160    
    985.1735    
   1018.7814    
   1001.5984    
    955.0923    
    977.9644    
    896.9569    
   1037.1462    
    820.4773    
    872.3514    
    818.2491    
    880.7206    
    721.0713    
    735.7607    
    811.1620    
    730.9326    
    771.9774    
    720.8367    
    711.8551    
    697.6129    
    701.7751    
    614.2006    
    586.9904    
    635.5750    
    616.1788    
    609.8674    
    533.1683    
    568.5594    
    617.0758    
    501.3615    
    492.4991    
    572.0735    
    485.1804    
    554.2871    
    532.4024    
    570.3749    
    569.3010    
    539.5945    
    520.3202    
    521.8522    
    512.9908    
    537.9056    
    492.6960    
    421.7331    
    436.1898    
    445.4746    
    426.3209    
    474.4201    
    406.1367    
    461.9395    
    528.2769    
    509.0397    
    430.3233    
    434.4335    
    386.9425    
    478.8646    
    359.0979    
    440.5441    
    457.5769    
    451.3504    
    473.5622    
    423.4174    
    492.1438    
    550.7283    
    502.9643    
    447.5887    
    456.8663    
    445.4769    
    444.4205    
    461.4417    
    403.6341    
    485.1746    
    458.2735    
    470.1244    
    474.2408    
    553.4525    
    461.7895    
    496.9082    
    408.1108    
    481.8569    
    380.2874    
    397.2339    
    434.8192    
    446.6497    
    504.9939    
    527.2217    
    477.0287    
    519.9153    
    555.1111    
    554.0428    
    508.9627    
    458.8317    
    442.3195    
    402.6565    
    414.4728    
    472.6637    
    461.2963    
    377.9201    
    474.6552    
    452.9687    
    408.1769    
    427.6956    
    429.2167    
    374.2274    
    375.7454    
    356.7599    
    365.9702    
    344.4337    
    356.1942    
    416.7286    
    461.9744    
    412.0630    
    441.8547    
    356.1168    
    342.2813    
    297.8051    
    324.8638    
    267.6908    
    312.5789    
    319.2001    
    279.8972    
    329.9054    
    400.5450    
    350.8404    
    283.4230    
    348.7670    
    340.0562    
    267.6033    
    378.9068    
    285.9203    
    234.0112    
    240.6085    
    280.2866    
    279.2589    
    380.3349    
    371.6212    
    337.3519    
    466.9663    
    381.2858    
    303.6425    
    274.6108    
    321.9734    
    354.1191    
    325.0105    
    283.2168    
    338.2452    
    316.8116    
    348.9312    
    327.4924    
    385.1781    
    353.4819    
    293.8339    
    254.6776    
    307.0446    
    313.6511    
    304.9807    
    240.4395    
    264.7953    
    314.6161    
    362.0136    
    310.0124    
    334.4388    
    358.9024    
    345.1158    
    323.7009    
    315.0374    
    255.5866    
    325.6965    
    233.2653    
    257.5888    
    256.5635    
    324.1190    
    320.5474    
    190.2364    
    282.9149    
    276.8167    
    179.6276    
    292.5311    
    276.2833    
    163.9820    
    226.1030    
    207.3934    
    269.6483    
    268.6188    
    244.8056    
    304.6299    
    252.8908    
    322.8903    
    185.1560    
    206.8551    
    226.0466    
    285.7843    
    158.4357    
    112.1558    
    179.0855    
    120.2031    
    217.4320    
    188.6598    
    192.6928    
    221.9640    
    198.2342    
    104.1496    
    191.1687    
    134.7963    
     98.6458    
    110.1859    
    141.8352    
    173.5291    
    185.1078    
    174.0264    
    145.3550    
    109.2085    
    181.0717    
    132.2982    
    166.4694    
    122.7682    
    114.2435    
     65.6645    
     72.1719    
    146.3687    
    145.3676    
     61.6935    
     53.2041    
     84.7109    
     41.2320    
     65.2237    
    114.2744    
     53.2440    
     94.7466    
     76.2454    
      0.0001    
     84.2604    
    160.9338    
     67.2732    
     91.2784    
     65.2954    
     91.7917    
     40.8508    
      0.0001    
     28.9046    
     47.8596    
    109.3238    
     93.3193    
     27.4493    
     14.0128    
    120.3425    
     54.3939    
     58.3953    
     74.8662    
     73.8746    
    132.8641    
     91.8636    
     21.0686    
     99.8704    
     29.0593    
      0.0001    
    101.8757    
     38.5390    
     17.6523    
     66.4598    
     20.6605    
     44.5569    
     48.5459    
     10.2502    
     56.5266    
     20.7105    
     52.0645    
     51.0752    
     32.6777    
     11.8111    
     33.1918    
      9.8458    
      1.4147    
     42.6634    
      0.0001    
     38.2102    
     14.8718    
     28.7886    
     62.6139    
     11.9224    
      3.4994    
      2.5149    
      0.0001    
      0.0001    
     14.4593    
     11.0000    
      0.0001    
      0.0001    
     25.4256    
      7.0789    
     28.4191    
      0.1601    
      0.0001    
      0.0001    
     24.4877    
      0.0001    
      0.0001    
      0.0001    
      0.0001    
      0.0001    
     60.7846    
      0.0001    
     41.4402    
      0.0001    
      0.0001    
      0.0001    
      0.0001    
      0.0001    
     15.7171    
      0.0001    
      0.0001    
      0.0001    
      0.0001    
      0.0001    
      0.0001    
      0.0001    
     40.0737    
      0.0001    
     35.6349    
      0.0001    
      0.0001    
      0.0001    
      0.0001    
      0.0001    
     12.4302    
     11.4521    
      0.0001    
     16.9148    
      0.0001    
     42.1752    
      0.0001    
      0.0001    
      0.0001    
      0.0001    
      0.0001    
      0.0001    
      0.0001    
      0.0001    
     16.0455    
     12.5995    
     56.1314    
     52.6770    
      0.0001    
      0.0001    
      0.0001    
     41.3253    
      8.2295    
      0.0001    
     30.9719    
      5.3038    
     16.6682    
      0.0001    
     39.4127    
     26.0850    
     17.7023    
      0.0001    
      0.0001    
      0.0001    
      0.0001    
      0.0001    
      0.0001    
     38.0180    
      2.5036    
      0.0001    
     17.8102    
      2.0448    
      3.5380    
     32.1444    
     18.8364    
     40.0612    
      0.0001    
      0.0001    
      0.0001    
      0.0001    
     25.3164    
     46.5359    
     57.8942    
     12.5313    
     21.4107    
     27.8245    
     34.2427    
     25.8746    
      0.0001    
      0.0001    
      0.0001    
      0.0001    
      0.0001    
     37.2683    
     26.4408    
     27.9291    
     41.7292    
      0.0001    
      0.0001    
      0.0001    
      0.0001    
      0.0001    
      0.0001    
      0.0001    
     61.0181    
     32.9484    
      0.0001    
     35.9249    
      0.0001    
     83.2535    
      5.9534    
      0.0001    
      0.0001    
      0.0001    
      0.0001    
      0.0001    
      0.0001    
     55.7010    
     27.6653    
     14.4048    
     67.5421    
     39.4958    
     80.3699    
     74.4581    
      0.0001    
      0.0001    
      0.0001    
      0.0001    
      0.0001    
     31.7111    
      6.1885    
     24.8481    
     28.7898    
     57.3032    
     44.0402    
      0.0001    
     17.5421    
     16.5671    
     32.7755    
      0.0001    
      0.0001    
      0.0001    
     31.3404    
     10.7534    
     56.4058    
     57.8896    
     54.4554    
     55.9344    
     64.7873    
     63.8134    
      0.0001    
      0.0001    
     21.6323    
      0.0001    
      0.0001    
     89.9083    
      7.9614    
     43.7455    
     20.7185    
     73.7116    
     67.8201    
     22.7053    
      0.0001    
     13.4277    
     29.6016    
      0.0001    
     69.3321    
      0.0001    
     84.5706    
     51.6979    
     82.6138    
    103.7466    
     36.5369    
     84.5968    
     44.3850    
     14.0492    
     47.3486    
    115.0751    
     35.6076    
     71.3856    
     87.5849    
     66.9873    
     97.8972    
     77.2975    
     76.3240    
     23.9386    
     49.8754    
     44.0141    
     40.5971    
     54.3051    
     19.1012    
     23.0247    
     78.3326    
     43.0844    
      5.4719    
     92.5698    
    150.5153    
    151.9904    
    106.8084    
     42.1627    
      0.0001    
     81.8179    
     71.0505    
     60.2880    
     88.6913    
    166.2563    
     64.7167    
    107.8189    
    124.0126    
    150.0312    
    109.7885    
     69.6421    
     27.1446    
    136.2851    
     27.6539    
     77.9861    
     74.5630    
     95.6150    
     60.4065    
     81.4291    
    158.8765    
    150.5347    
    152.0041    
     45.7939    
    152.4973    
    176.0670    
    192.2857    
    103.0069    
    119.1612    
    189.3294    
    134.3596    
    130.9241    
    142.2023    
     31.2539    
     88.8498    
     92.7683    
    123.5921    
    117.7183    
    124.0881    
    130.4554    
    127.0274    
    165.2543    
    107.9559    
    126.5486    
     81.5842    
    173.5830    
     94.2903    
    154.4659    
    200.0813    
    199.1015    
     63.5707    
    184.8602    
    171.6216    
    121.6793    
    128.0412    
     78.2323    
    135.8677    
    147.1295    
    109.4848    
    238.3620    
    217.7191    
    192.1917    
    178.9595    
    133.9297    
    115.8529    
    149.0895    
     55.4084    
     69.0552    
    187.7654    
    115.8701    
    185.8026    
    150.5587    
    134.9255    
    239.2588    
    157.4077    
    215.1963    
    233.8376    
    220.5857    
    182.8438    
    154.9673    
    190.6768    
    223.9972    
     93.4928    
    129.0871    
    245.5738    
    136.8969    
    275.5242    
    166.6950    
    212.2008    
    201.4214    
    202.8867    
    214.1526    
    132.5188    
    129.1122    
    162.2918    
    117.4202    
    128.6299    
    230.2865    
    224.4015    
    189.1631    
    345.2579    
    218.9996    
    174.0138    
    268.4933    
    247.8913    
    112.5784    
    101.8837    
    181.3262    
    236.5928    
    191.5839    
    171.0717    
    265.4872    
    181.3193    
    207.2097    
    277.2325    
    141.8192    
    267.8969    
    262.0084    
    131.6008    
    162.2884    
    149.1330    
    184.7215    
    213.0400    
    168.1370    
    257.5439    
    232.0907    
    204.2316    
    337.9852    
    187.6324    
    181.7789    
    207.6355    
    206.6565    
    166.6687    
    243.7787    
    137.9546    
    219.8219    
    277.5240    
    203.2183    
    297.5952    
    184.1999    
    224.6807    
    196.8691    
    234.9273    
    268.1629    
    193.9350    
    166.1739    
    265.2062    
    247.1058    
    221.7182    
    267.1324    
    212.4407    
    314.1140    
    271.5115    
    185.1468    
    223.1505    
    209.9806    
    279.7889    
    181.2482    
    119.5565    
    247.5198    
    241.6503    
    228.4801    
    271.4251    
    250.9051    
    169.5676    
    332.0738    
    318.8353    
