  11100 12  1   LUAG1    PUC    BMW  .000 U SI 021293 00.01   1        
  PROGRAM LAMBDA-9   VERSION 02.31                                     
  USER BMW DATE & TIME  1993 02 12 10.13 28.70    9.9300    295K U     
 AU1 HO  50     0     0 LUAG            1.750000 - 2.200000 .00020     
 FILE NAME                                ON PC = LUAG1.SP             
 NO_POINTS  =  2251.    pts   DATA_INTV =  .000200 æm                  
 MIN_LAMBDA =  1.750000 æm     MIN_DATA =    .53830                    
 MAX_LAMBDA =  2.200000 æm     MAX_DATA =    .86230                    
 SCANSPEED  = 15.000000 NM/MIN SLITWIDTH=   .00000 æm                  
  RESP TIME =   .5      sec SENSITIVITY = 5          DATE=93/02/12     
 10:32:57    93/02/12                                                  
  LUAG1                                                                
  This spectra is part of Database LASERS
 Database LASERS was created by Pat Cross working 
 at NASA Langley Research Center, Internal Operations Group,
 Aerospace Electronics Systems Division, Remote Sensing 
 Technology Branch. phone:(757)864-1633   fax:(757)864-7894 
     e-mail p.l.cross@larc.nasa.gov 
     homepage http://aesd.larc.nasa.gov/laser/dbmain.htm
  EOH     (1X,F11.4)                                                   
  2251.         
    172.7702    
    165.7233    
    139.6693    
    266.0510    
    173.1341    
    206.5631    
    128.1592    
    204.3615    
    183.0178    
    152.1858    
    100.0548    
    185.6703    
    128.7050    
    164.4377    
    185.9432    
    119.4840    
    186.1251    
    155.2909    
     67.6210    
    179.2573    
    100.9645    
     65.5269    
    136.7377    
    115.4672    
    191.6156    
    213.1489    
    232.3199    
    275.4063    
    244.4363    
    239.7521    
    204.0705    
    139.9317    
     75.9956    
    199.5791    
    102.2378    
     69.1672    
    123.7675    
     48.0603    
    138.1929    
    164.4241    
    178.7871    
    188.3989    
    169.4526    
    198.1061    
    164.8787    
    162.5915    
    124.6768    
    131.8882    
     94.0303    
     77.5415    
     84.7376    
     80.0914    
    220.3732    
    127.6870    
    199.1062    
    192.0531    
    266.0904    
    242.2981    
    237.6163    
    197.1787    
    228.2548    
    218.8068    
    159.3829    
    171.3619    
    121.5667    
    131.1504    
    162.1242    
    152.7077    
    143.2957    
    126.7678    
    117.3681    
    115.0867    
    165.0460    
    181.7872    
    143.8411    
     82.2731    
    148.7730    
    139.3633    
    127.5857    
    170.4388    
    161.0190    
     99.4001    
    137.4443    
    151.7854    
    187.5475    
    230.5270    
    256.8727    
    280.8610    
    273.7798    
    207.0525    
    230.9814    
    238.2290    
    171.6202    
    226.4832    
    181.3171    
    186.1665    
    167.2270    
    138.8073    
    112.7979    
    150.8630    
    105.8675    
    103.5878    
    153.5118    
     99.0291    
    203.6503    
     68.4310    
     89.8270    
    182.4982    
    108.9638    
    123.2845    
    125.7467    
    125.8376    
    106.9577    
    206.8502    
     90.5537    
    195.1242    
    192.8354    
    190.5455    
    243.0685    
    145.5543    
    257.5730    
    198.0504    
    217.1987    
    179.1926    
    222.1468    
    181.7536    
    167.5756    
    243.8858    
    224.8944    
    117.9841    
    120.4469    
    113.4240    
    187.1473    
    184.8596    
    135.0467    
    144.6322    
     90.1830    
    154.3145    
    206.7383    
    171.1326    
     83.4433    
    121.4458    
    116.7943    
    147.7337    
    143.0760    
    131.2984    
    190.7986    
    152.8479    
    200.5022    
    253.0436    
    245.9743    
    234.1362    
    203.2468    
    212.8652    
    234.4085    
    222.5775    
    239.3613    
    170.3903    
    222.8498    
    258.7258    
    275.5380    
    180.2638    
    168.4666    
    123.4430    
    161.5184    
    178.2496    
    107.1199    
    123.8061    
    216.6083    
    159.5957    
    221.5566    
    159.7772    
    228.8889    
    171.8426    
    122.0694    
    155.3895    
    169.7372    
    105.7481    
    134.2938    
    215.2251    
    136.8487    
    163.0612    
    220.2621    
    277.6254    
    270.5483    
    172.9315    
    265.9531    
    287.5498    
    192.2305    
    235.1998    
    278.2605    
    211.5489    
    280.8323    
    216.4954    
    202.2957    
    214.2942    
    181.0627    
    140.7649    
    228.8638    
    255.1938    
    190.9408    
    169.6282    
    207.7843    
    293.7846    
    219.8749    
    200.9141    
    222.4395    
     89.5238    
    175.0182    
    206.0377    
    194.2263    
    113.5733    
    215.8363    
    177.8482    
    154.1768    
    266.1953    
    237.6491    
    237.7398    
    278.4119    
    249.8486    
    266.6488    
    226.1836    
    254.8929    
    193.0270    
    216.9247    
    259.9396    
    295.8707    
    212.4322    
    169.7001    
    219.7608    
    186.5239    
    217.5594    
    186.7052    
    193.9338    
    184.5092    
    167.9595    
    182.3121    
    180.0246    
    196.7656    
    254.0489    
    132.8005    
    204.1789    
    218.5568    
    144.9368    
    209.2117    
    206.9211    
    171.3322    
    192.8235    
    219.1008    
    259.7282    
    281.3135    
    238.4392    
    257.6130    
    269.6410    
    155.4287    
    267.4340    
    193.6394    
    250.9077    
    217.6249    
    229.6289    
    239.2550    
    170.3165    
    215.6053    
    225.2247    
    222.9338    
    258.7913    
    199.3038    
    163.7331    
     90.3199    
    199.5757    
    156.8789    
    104.7982    
    223.6589    
    150.0286    
    221.4574    
    214.4031    
    286.0587    
    267.0413    
    212.2934    
    255.2880    
    229.1486    
    184.0129    
    120.0100    
    217.5085    
    165.2737    
    239.1360    
    203.4964    
    239.3172    
    325.4193    
    289.6269    
    268.2192    
    361.6382    
    251.6949    
    196.9924    
    211.3619    
    163.8947    
    168.7354    
    133.2221    
    109.6122    
    154.7587    
    109.7933    
    183.4485    
    228.7586    
    257.4624    
    319.6874    
    341.3300    
    205.3083    
    245.8973    
    238.8353    
    186.5496    
    267.6432    
    251.0303    
    201.0932    
    198.8042    
    220.3168    
    220.4074    
    261.0266    
    237.2664    
    280.3066    
    268.4584    
    168.5348    
    256.7064    
    249.6411    
    199.7098    
    280.8500    
    266.6143    
    290.5881    
    326.5574    
    288.3806    
    255.0462    
    231.2945    
    188.5420    
    286.3531    
    202.9950    
    191.1918    
    260.3605    
    222.3091    
    222.3996    
    234.4021    
    253.5659    
    248.8857    
    332.6145    
    282.4799    
    239.6207    
    184.9650    
    208.8400    
    204.1720    
    142.4945    
    168.6945    
    249.7005    
    228.3411    
    276.1302    
    280.9977    
    336.0945    
    369.7413    
    312.3413    
    295.6945    
    396.4179    
    317.3983    
    288.7974    
    257.8528    
    238.8678    
    265.1914    
    224.7533    
    241.5217    
    294.1189    
    222.6445    
    201.3140    
    227.5880    
    268.2104    
    230.1514    
    225.4774    
    220.8059    
    292.4543    
    273.4376    
    256.8246    
    381.3304    
    273.7091    
    379.1125    
    391.2044    
    328.9608    
    305.1283    
    305.2188    
    178.9886    
    279.1169    
    272.0455    
    281.6862    
    420.7634    
    303.3720    
    339.3526    
    401.8069    
    308.4246    
    353.9994    
    361.2807    
    201.3782    
    299.2238    
    275.4283    
    232.5945    
    142.3657    
    123.4943    
    166.2765    
    273.4931    
    266.4243    
    316.6848    
    311.9924    
    283.4051    
    396.0489    
    345.7721    
    429.8781    
    413.1374    
    295.8018    
    310.2339    
    418.2156    
    305.6336    
    298.5522    
    346.4957    
    270.0772    
    368.2466    
    385.1301    
    411.6382    
    418.9392    
    445.4915    
    525.1766    
    566.3929    
    515.6927    
    556.8907    
    583.6244    
    559.4912    
    574.1126    
    579.0481    
    559.7625    
    559.8530    
    581.7430    
    718.0032    
    857.6475    
    892.1626    
   1085.1343    
   1274.9530    
   1540.1421    
   1816.5966    
   1971.8782    
   2293.8950    
   2460.8906    
   2471.6250    
   2559.7419    
   2434.5769    
   2278.5239    
   2121.0574    
   1848.3533    
   1683.9640    
   1518.3677    
   1241.1329    
   1173.7333    
   1019.6950    
    940.6946    
    985.2354    
    901.4468    
    810.6510    
    815.6430    
    717.9138    
    627.9432    
    603.7618    
    574.7637    
    470.9659    
    490.3442    
    394.1809    
    339.1326    
    432.8071    
    425.6835    
    466.6884    
    442.7014    
    421.1472    
    587.7830    
    563.6498    
    592.8112    
    607.4520    
    580.8735    
    583.3873    
    622.2856    
    590.8384    
    622.4664    
    545.0168    
    535.4355    
    634.8792    
    610.6919    
    673.9662    
    693.5380    
    693.6284    
    793.8552    
    936.4591    
   1030.4695    
   1119.9431    
   1177.3484    
   1347.8499    
   1466.5730    
   1547.8361    
   1690.7703    
   1899.2848    
   2049.9531    
   2299.1370    
   2436.8906    
   2650.6240    
   2888.3682    
   2940.1409    
   3016.6362    
   3044.0845    
   2986.7659    
   3003.2417    
   2842.7810    
   2654.0305    
   2432.4810    
   2289.6704    
   2095.5667    
   2093.0449    
   1924.1117    
   1906.0839    
   1932.0636    
   1805.6177    
   1906.3549    
   1942.6978    
   1888.4336    
   1873.0215    
   1829.2517    
   1816.4594    
   1770.2427    
   1575.9794    
   1497.3300    
   1431.6162    
   1310.7841    
   1268.2218    
   1138.4028    
   1041.6077    
   1123.6466    
   1056.6630    
   1046.8352    
   1176.2427    
   1133.9640    
   1146.5067    
   1311.6871    
   1374.6683    
   1501.1299    
   1628.3892    
   1823.3279    
   2051.4114    
   2253.1365    
   2555.5061    
   2905.9304    
   3210.0515    
   3755.6211    
   4226.1973    
   4675.3501    
   5210.8018    
   5570.6982    
   5698.4121    
   5855.2422    
   6010.1299    
   6108.7705    
   6153.5283    
   6294.6431    
   6391.4575    
   6714.0698    
   6932.0820    
   7239.9287    
   7443.2954    
   7641.8545    
   7911.9722    
   7926.0083    
   7717.9194    
   7515.3804    
   6959.3804    
   6360.1577    
   5872.5171    
   5267.6357    
   4698.2134    
   4260.4077    
   4009.1472    
   3851.9404    
   3857.7300    
   3854.9705    
   3889.2808    
   4041.2058    
   4142.1953    
   4150.9575    
   4052.9827    
   4061.7063    
   3898.3860    
   3648.7671    
   3519.5500    
   3305.0325    
   2983.3430    
   2806.8640    
   2471.6882    
   2262.7327    
   2218.1211    
   2009.1692    
   1967.7095    
   1972.9896    
   1869.5533    
   1980.9557    
   2017.4202    
   1994.1201    
   2200.4651    
   2268.8999    
   2379.8884    
   2547.4771    
   2574.2827    
   2700.4138    
   2757.0774    
   2765.2620    
   2868.1672    
   2963.4221    
   2876.4868    
   2920.0435    
   2760.3154    
   2615.2349    
   2604.6130    
   2404.9038    
   2391.7451    
   2238.7712    
   2191.5945    
   2217.9302    
   2257.4534    
   2310.2405    
   2379.0447    
   2549.2813    
   2667.1870    
   3005.7888    
   3253.1794    
   3615.9292    
   4129.1934    
   4721.1914    
   5423.2764    
   6013.9063    
   6427.2412    
   7011.8364    
   7419.1685    
   7751.7783    
   8163.9209    
   8405.3506    
   8747.5244    
   8831.3164    
   8944.7734    
   9136.4727    
   9177.3301    
   9147.7646    
   9059.1426    
   8653.9541    
   8278.0342    
   7725.2271    
   7177.1138    
   6646.7993    
   6203.5723    
   5794.9678    
   5508.5693    
   5296.4380    
   5016.9980    
   4923.7666    
   4720.6523    
   4513.6802    
   4419.8184    
   4279.7974    
   4097.4570    
   4016.9949    
   3885.4446    
   3882.6819    
   3754.8391    
   3644.7053    
   3636.3420    
   3538.0671    
   3367.8604    
   3379.0737    
   3284.8127    
   3081.0679    
   3001.8357    
   2928.3547    
   2833.4707    
   2739.0342    
   2615.5601    
   2669.2800    
   2482.2852    
   2532.9829    
   2573.1179    
   2637.4460    
   2774.7229    
   2788.3137    
   2986.5454    
   3203.2810    
   3391.7354    
   3509.0540    
   3711.7092    
   3882.1733    
   3919.3696    
   4036.9326    
   3999.7014    
   3994.0547    
   3954.0408    
   3894.1238    
   3874.2512    
   3825.9431    
   3732.4131    
   3633.6831    
   3434.7864    
   3163.4077    
   3012.7305    
   2717.3230    
   2535.2361    
   2270.3792    
   2092.2759    
   2001.2600    
   1895.1464    
   1725.4440    
   1717.8503    
   1656.5729    
   1669.4329    
   1641.4410    
   1582.9404    
   1608.4847    
   1674.9025    
   1623.9517    
   1621.4927    
   1731.4685    
   1675.2628    
   1711.1591    
   1724.0531    
   1726.7052    
   1783.2344    
   1775.6177    
   1837.4358    
   1788.6427    
   1763.0529    
   1835.1299    
   1812.0538    
   1771.0234    
   1843.1281    
   1925.8372    
   1967.3650    
   2144.5198    
   2384.0266    
   2492.9216    
   2812.1846    
   3026.9907    
   3352.1199    
   3612.1333    
   3824.3098    
   4061.7424    
   4211.9678    
   4212.0576    
   4418.9624    
   4451.2852    
   4515.9956    
   4634.1113    
   4699.4116    
   4800.6973    
   4935.5107    
   4914.5850    
   5004.8979    
   5026.0986    
   4881.8740    
   4938.9639    
   4879.0576    
   4837.2563    
   4831.3677    
   4499.5225    
   4650.0830    
   4579.2231    
   4635.4624    
   4688.8901    
   4819.9600    
   4957.8994    
   5460.3604    
   5780.5249    
   6172.8208    
   6677.4312    
   7081.0820    
   7561.3066    
   8028.7251    
   8428.5010    
   8887.4678    
   9104.3477    
   9249.0303    
   9361.0576    
   9305.1016    
   9182.4365    
   8851.4941    
   8486.4590    
   8099.7920    
   7696.2827    
   7429.4653    
   7089.1167    
   6787.3262    
   6603.8691    
   6535.5557    
   6383.3931    
   6409.3179    
   6303.0542    
   6133.5015    
   6149.5356    
   6016.0942    
   5808.1201    
   5711.2212    
   5463.1509    
   5178.5474    
   5054.3936    
   4832.1621    
   4600.5376    
   4518.0947    
   4430.1313    
   4568.3433    
   4701.5737    
   4985.6592    
   5350.3027    
   5706.0586    
   6087.2773    
   6763.1621    
   7088.1143    
   7568.4175    
   7896.2920    
   7920.7466    
   7868.6621    
   7726.8291    
   7205.9575    
   6694.9453    
   6075.4619    
   5406.7290    
   5032.2192    
   4537.5527    
   4233.7529    
   3974.5149    
   3676.2141    
   3513.3545    
   3329.6084    
   3078.9500    
   2831.3733    
   2581.4619    
   2339.8938    
   2197.9414    
   2077.8179    
   1922.1782    
   1808.8262    
   1680.7761    
   1629.8367    
   1627.3796    
   1579.1176    
   1536.0441    
   1569.1328    
   1450.1722    
   1617.6403    
   1569.4026    
   1594.9131    
   1702.1238    
   1658.7860    
   1820.2822    
   1939.0459    
   2115.8577    
   2410.4429    
   2575.4280    
   2784.9019    
   3084.0261    
   3246.3564    
   3560.8721    
   3653.7197    
   3617.2185    
   3637.0034    
   3730.2019    
   3654.0796    
   3578.2461    
   3410.6338    
   3247.1658    
   3128.8843    
   3035.8674    
   3022.3025    
   3044.2466    
   3118.2678    
   3369.5544    
   3579.0554    
   3827.6624    
   4137.0029    
   4174.6406    
   4299.4253    
   4483.6118    
   4460.2300    
   4454.4575    
   4250.3936    
   4131.8628    
   3919.6072    
   3831.4038    
   3625.0911    
   3504.5842    
   3437.6777    
   3426.6228    
   3479.7048    
   3527.3262    
   3648.1472    
   3891.8926    
   4118.4331    
   4461.5786    
   4864.4424    
   5220.6470    
   5685.8218    
   6114.1914    
   6470.7109    
   6813.8716    
   7009.3286    
   7116.1787    
   7019.4927    
   6650.1357    
   6271.3857    
   5692.8628    
   5088.1099    
   4571.6206    
   4039.3188    
   3487.1780    
   3190.5620    
   2849.4797    
   2583.4021    
   2386.8120    
   2213.0896    
   2186.9749    
   2194.9224    
   2200.2534    
   2234.4377    
   2358.2783    
   2368.9355    
   2592.2266    
   2764.0496    
   2874.9297    
   2991.8735    
   2986.5142    
   3104.1082    
   3225.1492    
   3244.5481    
   3335.9182    
   3408.2166    
   3430.5776    
   3525.5940    
   3567.7041    
   3506.1936    
   3419.7983    
   3154.3987    
   2957.6428    
   2754.7107    
   2434.1619    
   2336.4102    
   1991.2612    
   1767.0024    
   1700.5270    
   1545.3036    
   1381.2030    
   1434.1924    
   1311.0652    
   1308.6478    
   1336.3298    
   1213.7997    
   1276.3577    
   1273.9447    
   1314.1102    
   1445.0032    
   1424.9139    
   1553.9918    
   1691.5634    
   1709.5437    
   1786.4885    
   2008.5341    
   2026.7981    
   2024.2902    
   1990.6458    
   1858.9338    
   1799.8643    
   1735.8475    
   1605.7889    
   1466.4602    
   1272.9691    
   1153.3197    
   1126.0708    
    994.9474    
    962.9838    
    913.8583    
    847.6996    
    806.1888    
    694.1404    
    672.3622    
    679.7383    
    643.4219    
    609.5922    
    583.0707    
    525.2222    
    566.3344    
    467.6295    
    429.2954    
    525.5814    
    403.1014    
    434.3645    
    422.4586    
    355.5078    
    463.4504    
    511.6619    
    492.4892    
    540.7683    
    521.5694    
    499.9795    
    642.6145    
    560.4361    
    591.9423    
    645.3076    
    596.9588    
    650.3383    
    589.8828    
    597.2281    
    657.8850    
    691.9720    
    641.0875    
    718.9041    
    743.3449    
    721.5179    
    799.6451    
    763.1169    
    726.6550    
    797.4708    
    721.9667    
    756.1606    
    707.5469    
    714.9357    
    788.1494    
    834.6896    
    751.7330    
    793.3039    
    766.5438    
    830.1548    
    827.7973    
    744.8709    
    759.5866    
    762.1138    
    711.0567    
    801.3506    
    708.8035    
    679.7290    
    704.1198    
    684.7658    
    806.6861    
    853.2658    
    936.8169    
   1035.5392    
   1152.1444    
   1192.0540    
   1324.6091    
   1402.5841    
   1490.9741    
   1450.6498    
   1473.4628    
   1418.0536    
   1496.3898    
   1365.3995    
   1362.9764    
   1355.5309    
   1265.4146    
   1318.0751    
   1235.6143    
   1203.2775    
   1218.3265    
   1173.5699    
   1176.1489    
   1104.1865    
   1069.5848    
   1129.1821    
   1176.5078    
   1203.9952    
   1256.4930    
   1299.1082    
   1331.7793    
   1442.5330    
   1311.9026    
   1284.4481    
   1372.3088    
   1282.1250    
   1257.2107    
   1237.3190    
   1127.8650    
   1242.4927    
   1142.9481    
   1205.2512    
   1330.3473    
   1282.8427    
   1438.6564    
   1555.0657    
   1519.6826    
   1628.9241    
   1674.8815    
   1662.2190    
   1744.0580    
   1749.2689    
   1672.6888    
   1739.2087    
   1599.0309    
   1632.1875    
   1586.5079    
   1500.4268    
   1424.7898    
   1221.8252    
   1107.5056    
   1100.1566    
    956.9636    
    849.0317    
    800.2124    
    685.8297    
    676.2068    
    601.1847    
    577.1031    
    608.6205    
    516.9837    
    461.7583    
    473.8594    
    416.3558    
    488.4639    
    466.9204    
    304.3119    
    376.0188    
    345.0424    
    311.7309    
    314.2049    
    311.9102    
    266.7575    
    366.9930    
    321.7169    
    405.4533    
    458.2996    
    400.8440    
    504.1533    
    528.3232    
    451.4563    
    458.7479    
    396.5034    
    410.9617    
    432.6212    
    396.7724    
    360.9890    
    344.3593    
    258.6816    
    349.3135    
    378.0809    
    354.2689    
    320.9455    
    311.4985    
    297.2924    
    388.0974    
    321.3040    
    378.7084    
    402.7267    
    345.4350    
    350.2995    
    333.6797    
    295.6274    
    405.5697    
    336.3352    
    305.4250    
    317.4322    
    296.0755    
    336.6937    
    305.7835    
    236.8929    
    296.4341    
    282.2397    
    275.1912    
    389.8004    
    380.3217    
    366.0667    
    392.4610    
    418.8897    
    459.7527    
    503.1046    
    428.7451    
    383.3396    
    409.7558    
    330.9700    
    376.4347    
    300.1604    
    205.2002    
    321.7885    
    283.7632    
    312.4322    
    283.9424    
    248.3651    
    360.4222    
    422.7201    
    391.6823    
    439.6804    
    413.4057    
    377.5995    
    372.9085    
    353.8842    
    370.6971    
    363.6181    
    320.7478    
    292.2479    
    366.2766    
    337.7122    
    297.2795    
    297.3690    
    238.0141    
    361.9453    
    371.5930    
    441.1138    
    429.2149    
    383.8162    
    412.6229    
    496.7095    
    453.5574    
    470.4521    
    343.6489    
    331.8096    
    461.1160    
    351.0801    
    348.7819    
    315.4782    
    244.1959    
    291.8391    
    349.1402    
    275.3606    
    368.4265    
    344.6342    
    373.3845    
    351.9758    
    402.2652    
    411.9311    
    455.1696    
    330.8572    
    426.5720    
    417.0785    
    288.2423    
    326.4467    
    293.1825    
    210.1271    
    236.3108    
    210.3062    
    243.6120    
    284.1106    
    305.6248    
    386.8614    
    410.8795    
    444.5173    
    478.2110    
    392.0024    
    380.1362    
    452.0714    
    394.6636    
    294.5258    
    354.2146    
    187.8677    
    225.8793    
    275.8490    
    275.9385    
    254.6349    
    333.2750    
    280.9635    
    388.3835    
    393.2560    
    378.9988    
    424.5565    
    345.7411    
    338.6730    
    396.0962    
    319.7766    
    367.5873    
    398.7576    
    308.1317    
    298.6960    
    320.2242    
    348.9323    
    341.8633    
    282.3959    
    320.5822    
    363.6163    
    363.7058    
    497.9886    
    409.3138    
    430.9593    
    570.5167    
    570.6063    
    505.6502    
    580.4396    
    469.7835    
    501.1096    
    537.3008    
    532.5722    
    520.6245    
    448.6354    
    443.9295    
    537.7483    
    482.5081    
    540.3353    
    576.5956    
    477.9732    
    591.2620    
    680.9146    
    610.7714    
    717.5173    
    732.1942    
    642.4941    
    746.9727    
    754.3651    
    747.1516    
    657.3850    
    589.7414    
    599.4933    
    577.8485    
    558.6386    
    616.6818    
    657.9219    
    636.2158    
    692.0530    
    670.3102    
    701.9434    
    796.9628    
    811.6977    
    836.2180    
    789.9133    
    758.3217    
    860.9468    
    826.7997    
    748.8517    
    795.2385    
    780.6964    
    756.4230    
    785.7523    
    727.4046    
    715.3420    
    839.7352    
    871.6343    
    854.5898    
    866.9155    
    842.5385    
    930.8476    
    972.7306    
    990.0545    
   1024.6586    
   1044.4954    
   1089.0898    
   1195.8966    
   1220.8865    
   1188.6121    
   1255.9760    
   1116.7832    
   1281.1278    
   1288.7151    
   1223.9137    
   1313.9073    
   1364.1183    
   1351.6653    
   1396.9420    
   1374.4259    
   1407.1765    
   1394.6969    
   1419.9324    
   1498.1702    
   1475.5392    
   1435.3021    
   1427.8394    
   1357.5763    
   1345.1279    
   1450.7726    
   1352.8280    
   1302.8285    
   1245.4679    
   1195.7349    
   1235.6721    
   1215.8270    
   1126.4561    
   1201.0687    
   1042.5085    
   1141.6078    
   1109.4647    
    986.0654    
   1000.9345    
    978.8591    
    890.5353    
    900.4294    
    863.7761    
    876.1061    
    900.6977    
    810.2762    
    742.1409    
    751.9628    
    756.9194    
    752.1415    
    744.9315    
    570.6180    
    728.0881    
    759.8013    
    677.2866    
    718.6357    
    696.8702    
    704.2429    
    714.0446    
    687.4344    
    672.9736    
    692.4646    
    653.7694    
    632.0763    
    624.9101    
    675.8451    
    596.0912    
    605.8419    
    598.6852    
    690.7532    
    669.0208    
    681.2300    
    558.0302    
    594.3019    
    628.2227    
    676.7390    
    609.0627    
    621.2356    
    592.3356    
    650.4469    
    669.9146    
    653.0472    
    616.8485    
    675.0295    
    592.8719    
    648.5618    
    714.1196    
    660.8487    
    675.4763    
    634.4003    
    605.4814    
    736.4357    
    751.1191    
    697.7517    
    726.9807    
    673.6791    
    768.5153    
    788.0940    
    788.1833    
    851.7477    
    798.1146    
    781.1406    
    952.5193    
    886.3668    
    928.1392    
    920.8654    
    889.0847    
    933.3160    
   1009.6547    
    938.4047    
   1004.9059    
    933.6735    
    914.1319    
    938.7621    
    956.0481    
    931.5756    
    973.4395    
    887.6177    
    917.1212    
    939.2982    
    821.8624    
    927.2034    
    954.3063    
    875.9116    
    883.3456    
    893.2325    
    922.7416    
    913.0191    
    876.3583    
    910.7466    
    984.5306    
    879.0732    
    874.2675    
    849.8964    
    776.7806    
    767.1293    
    789.1422    
    711.3920    
    769.8323    
    699.4348    
    699.5240    
    755.4971    
    665.7628    
    731.3585    
    719.3017    
    690.2675    
    741.3495    
    807.1922    
    836.5730    
    946.8907    
    844.0826    
    900.4548    
    988.9573    
    974.2846    
    942.4246    
   1043.4474    
    869.0701    
    959.8892    
   1053.5897    
    984.6611    
   1034.0244    
    962.7047    
   1031.7360    
   1138.1626    
   1068.9456    
   1108.6101    
   1069.1241    
    995.2209    
   1029.8065    
   1054.5720    
   1049.7228    
    998.0392    
    904.7813    
    858.3580    
    931.9372    
    795.0615    
    839.0735    
    773.3153    
    712.6255    
    758.8906    
    783.3251    
    795.5972    
    805.4390    
    751.9487    
    800.7415    
    883.8958    
    793.6074    
    764.4710    
    830.3773    
    711.1799    
    776.9114    
    745.3679    
    687.1905    
    755.2742    
    619.6034    
    573.8378    
    675.4293    
    641.6276    
    661.0765    
    603.1439    
    574.2841    
    668.6086    
    700.2089    
    630.0739    
    712.5189    
    700.4767    
    695.7142    
    717.6425    
    562.9480    
    601.6222    
    637.9517    
    474.2727    
    553.6718    
    585.0896    
    520.1644    
    508.2379    
    541.9916    
    580.6228    
    701.6370    
    701.7263    
    696.9638    
    748.0458    
    602.7825    
    675.4176    
    716.7318    
    702.2618    
    682.9540    
    673.3518    
    617.8057    
    639.6475    
    668.7748    
    632.5730    
    639.9152    
    620.6680    
    673.9765    
    712.8582    
    698.3917    
    764.0678    
    793.3741    
    742.3597    
    830.1351    
    815.5840    
    835.1971    
    810.8837    
    840.2587    
    842.7908    
    852.6526    
    860.0740    
    847.9434    
    804.1046    
    831.0274    
    933.9016    
    931.5385    
    980.7514    
   1044.8823    
    956.3530    
   1067.2758    
   1139.1161    
   1074.8661    
   1094.7292    
   1141.8629    
   1114.7026    
   1181.7433    
   1129.7393    
   1194.3436    
   1206.8638    
   1132.4849    
   1202.0682    
   1269.3987    
   1167.4696    
   1312.0288    
   1347.1456    
   1232.3717    
   1324.7999    
   1309.8855    
   1275.0122    
   1377.6646    
   1237.7976    
   1282.7665    
   1345.3549    
   1307.9224    
   1315.5104    
   1290.6141    
   1178.6488    
   1295.7865    
   1231.0411    
   1188.8517    
   1213.7998    
   1156.7594    
   1122.1527    
   1288.8303    
   1261.4744    
   1354.0284    
   1339.0935    
   1384.2858    
   1477.4055    
   1525.4348    
   1502.8008    
   1566.0714    
   1442.5112    
   1500.5448    
   1515.7786    
   1405.0778    
   1455.4497    
   1420.3275    
   1250.2595    
   1320.2406    
   1317.8291    
   1287.9386    
   1318.0074    
   1255.6904    
   1255.7795    
   1280.8077    
   1241.0082    
   1293.4679    
   1271.0956    
   1231.3173    
   1238.8755    
   1216.5643    
   1152.0826    
   1244.1234    
   1073.0730    
   1137.4791    
   1159.8804    
   1070.8718    
   1046.2803    
   1135.3578    
   1125.5413    
   1125.6304    
   1217.5450    
   1222.6105    
   1245.1041    
   1230.2542    
   1200.4969    
   1267.8024    
   1180.8022    
   1297.9254    
   1310.5057    
   1163.6971    
   1151.3875    
   1213.5520    
   1050.1737    
   1124.4021    
   1124.4912    
   1072.6548    
   1065.3357    
   1077.7720    
   1139.7078    
   1134.8429    
   1132.4547    
   1162.2874    
   1167.3373    
   1192.2517    
   1242.0848    
   1237.1932    
   1257.2095    
   1317.1970    
   1292.3070    
   1319.8754    
   1382.5569    
   1332.5571    
   1415.3596    
   1460.7095    
   1438.1563    
   1465.9238    
   1383.0917    
   1498.8613    
   1587.4169    
   1638.2319    
   1745.2640    
   1730.0413    
   1783.7748    
   1824.8328    
   1899.3899    
   1974.2235    
   2106.4348    
   2064.9810    
   2111.8130    
   2190.0476    
   2213.6409    
   2221.5703    
   2245.2000    
   2193.0146    
   2261.0862    
   2366.2136    
   2290.0955    
   2398.0093    
   2398.0984    
   2342.8879    
   2390.3674    
   2390.4565    
   2475.0718    
   2448.7087    
   2367.0154    
   2406.6357    
   2359.2971    
   2280.5867    
   2249.2417    
   2074.7239    
   2067.0303    
   2103.4653    
   2046.4681    
   1927.7161    
   1994.8906    
   1935.6232    
   1953.7585    
   2015.8433    
   1935.8905    
   2021.1973    
   1977.3419    
   2026.5511    
   2130.4468    
   2052.6304    
   2133.2273    
   2148.9351    
   2112.5984    
   2149.1133    
   2188.3037    
   2157.1055    
   2225.0447    
   2165.1003    
   2097.5422    
   2214.8584    
   2173.1892    
   2110.8003    
   2118.6880    
   2035.7429    
   1919.6418    
   1906.8616    
   1791.5005    
   1753.2522    
   1628.6138    
   1593.2078    
   1575.5726    
   1595.9181    
   1573.2196    
   1593.5640    
   1485.0216    
   1467.4803    
   1454.9877    
   1470.1764    
   1397.3862    
   1292.3921    
   1217.7551    
   1257.6639    
   1111.3079    
   1059.5288    
   1005.4222    
    887.7714    
    853.6487    
    819.5826    
    780.7103    
    885.6815    
    834.4810    
    817.5025    
    798.1031    
    834.7481    
    810.4596    
    827.6100    
    778.9896    
    725.6348    
    691.7880    
    636.2498    
    641.1693    
    552.0690    
    554.5638    
    626.9470    
    614.9684    
    605.4089    
    641.7035    
    612.8226    
    726.6141    
    750.9778    
    734.0714    
    770.5974    
    731.8237    
    739.1937    
    800.0618    
    761.2304    
    700.6575    
    693.4796    
    640.3557    
    580.1460    
    645.3663    
    575.5085    
    590.0489    
    570.8708    
    532.4823    
    628.9055    
    549.4855    
    544.7651    
    621.9317    
    506.5160    
    545.0321    
    605.3117    
    557.2344    
    502.0729    
    482.9811    
    456.7248    
    504.7394    
    485.6439    
    509.7171    
    454.6871    
    502.6960    
    526.7892    
    579.7861    
    502.9630    
    543.8753    
    529.5460    
    524.8322    
    613.9719    
    553.8488    
    503.4969    
    607.0027    
    503.6749    
    484.5831    
    575.9487    
    573.6299    
    568.9057    
    568.9947    
    542.6282    
    639.0859    
    646.4210    
    603.0714    
    627.2810    
    581.5659    
    591.2881    
    707.3529    
    690.4872    
    731.7764    
    688.2439    
    739.2335    
    800.0869    
    834.2856    
    834.3746    
    893.0693    
    805.3127    
    788.3651    
    864.0113    
    866.5427    
    842.2246    
    783.8552    
    698.9972    
    682.1397    
    806.0245    
    687.1589    
    806.2025    
    723.6758    
    745.6013    
    830.8322    
    808.9937    
    852.9628    
    840.8527    
    789.7886    
    914.3333    
    860.6411    
    802.2222    
    792.5778    
    727.0798    
    652.1292    
    756.3813    
    683.7410    
    608.9523    
    609.0413    
    592.2608    
    638.1703    
    647.9194    
    732.7321    
    727.9694    
    616.8088    
    638.6151    
    771.9365    
    633.9653    
    689.6496    
    667.9650    
    595.6472    
    641.5637    
    540.4902    
    564.6192    
    543.0712    
    502.3515    
    452.1450    
    608.3200    
    485.8392    
    536.3074    
    548.4106    
    502.8851    
    546.1848    
    527.0571    
    467.2133    
    522.4344    
    532.1270    
    467.4801    
    460.3893    
    429.3952    
    417.5411    
    458.2644    
    362.8754    
    389.1757    
    358.2904    
    306.0711    
    363.2311    
    289.6339    
    237.5930    
    346.8358    
    285.1567    
    325.6103    
    282.9622    
    252.2424    
    233.3948    
    266.6335    
    209.9277    
    276.2930    
    205.3790    
    231.4732    
    312.1552    
    271.9080    
    248.3060    
    293.4297    
    250.8520    
    319.7261    
    279.4646    
    244.0166    
    241.7382    
    220.5384    
    201.7219    
    244.3722    
    244.4611    
    272.9748    
    327.6551    
    296.8699    
    318.3278    
    361.2244    
    358.9337    
    397.1451    
    328.1885    
    316.3977    
    280.8869    
    354.6170    
    245.5278    
    314.3777    
    264.6510    
    193.7870    
    257.7225    
    283.8795    
    241.3268    
    224.8573    
    248.6064    
    286.6070    
    315.1776    
    329.5218    
    365.2944    
    267.9970    
    329.7884    
    310.8715    
    280.1153    
    270.7226    
    251.8616    
    197.5705    
    150.4900    
    162.3612    
    141.2471    
    197.9260    
    242.9266    
    228.8221    
    254.9407    
    262.1341    
    285.9236    
    316.8661    
    278.9883    
    345.5645    
    276.7965    
    250.8282    
    324.4368    
    303.1541    
    225.0712    
    253.5500    
    199.2589    
    258.4642    
    154.6234    
    187.7224    
    204.3367    
    202.0635    
    225.7820    
    228.2342    
    183.4482    
    228.4119    
    275.8476    
    266.4582    
    273.6550    
    205.1363    
    146.2679    
    247.8704    
    219.5792    
    224.3948    
    222.1195    
    191.5043    
    137.3836    
    205.8470    
    161.1122    
    210.7495    
    187.2281    
     90.8084    
    144.9789    
    135.6528    
    100.4703    
    161.7340    
     93.6014    
    100.7368    
    126.6852    
    166.8037    
    145.6895    
    124.5990    
    174.1423    
    214.3546    
    216.8065    
    306.8855    
    254.8260    
    191.0983    
    240.8040    
    229.0690    
    184.2868    
    196.1745    
    229.3354    
    135.0756    
    144.5796    
    231.9652    
    241.5145    
    293.7148    
    196.7962    
    244.1471    
    258.4359    
    220.6798    
    234.9520    
    249.2341    
    138.4063    
    192.6969    
    240.0381    
    204.6776    
    188.2449    
    157.6858    
     91.9239    
    108.4552    
    143.8236    
    146.2670    
    153.4197    
     85.3254    
    144.1788    
    200.8430    
    167.9101    
    241.1926    
    201.1094    
    187.0398    
    222.5447    
    201.3758    
    142.5349    
    173.2465    
    114.4883    
     32.4779    
     53.6464    
     67.7997    
    100.7448    
     16.4536    
     21.2217    
     72.8461    
    105.7988    
     82.4081    
    141.2478    
     75.5459    
    162.6170    
    179.2041    
     73.4676    
    122.8724    
    118.2584    
     24.5369    
    139.6043    
     92.6833    
     13.1085    
    102.2540    
     71.8320    
     78.9575    
    130.7262    
     81.4817    
    100.3502    
    199.3191    
    100.5278    
    166.4827    
    185.4303    
    204.3943    
    211.5660    
    202.2123    
    183.4267    
    261.4855    
    188.3205    
    193.1280    
    190.8572    
    212.1873    
    193.3943    
    217.0891    
    137.0281    
    186.5842    
    123.0951    
     76.2194    
    177.4188    
    125.7129    
    116.3986    
    121.1876    
    107.1775    
    119.0156    
    196.8177    
    149.7716    
    131.0366    
    147.5948    
    237.3258    
    223.2331    
    133.7440    
    221.0492    
    199.8877    
     72.9481    
    127.0441    
    134.1877    
    129.5720    
    209.7730    
    136.8065    
     80.5164    
    106.4255    
    188.8916    
    148.9259    
    222.1141    
    132.6340    
    198.6813    
    243.6515    
    172.9205    
    130.6368    
     88.4435    
    119.0608    
    130.9030    
    126.2898    
     95.8393    
    126.4673    
      0.0006    
     37.5050    
     82.1136    
     58.7583    
     94.0239    
     33.1784    
     30.9268    
    162.4731    
    169.6282    
    115.6024    
    162.7393    
     85.2583    
    177.0519    
    238.5105    
    146.6151    
    165.5385    
    123.2747    
     52.9726    
    144.6165    
    175.3159    
     79.0200    
    133.1209    
      6.6262    
     39.4567    
    147.5022    
     86.5003    
    121.8110    
    119.5493    
     77.3842    
    195.0641    
    190.4366    
    108.1589    
    164.6909    
    108.3363    
    122.5206    
    139.0672    
     80.4393    
    118.0861    
     61.8631    
     33.8541    
    148.9214    
    116.0924    
     48.1648    
     81.0601    
     36.6379    
     41.4081    
    123.5849    
    116.6246    
    180.2452    
    199.1972    
    100.4520    
    135.7818    
    168.8203    
    143.0162    
    145.4564    
    110.2875    
     63.4594    
    150.4291    
     87.0808    
     87.1695    
    127.1772    
     17.0966    
     73.3661    
    132.1441    
     71.1991    
     97.0870    
     54.9760    
     10.6172    
     73.8982    
     66.9558    
     10.8832    
     55.4193    
      1.7153    
    100.1438    
     32.2795    
     23.0131    
     60.5479    
    102.8462    
