  11100 12  1   LUAG2    PUC    BMW  .000 U SI 021293 00.01   1        
  PROGRAM LAMBDA-9   VERSION 02.31                                     
  USER BMW DATE & TIME  1993 02 12 10.15 15.69    9.9300    295K U     
 AU1 HO  50     0     0 LUAG            1.050000 - 1.250000 .00020     
 FILE NAME                                ON PC = LUAG2.SP             
 NO_POINTS  =  1001.    pts   DATA_INTV =  .000200 æm                  
 MIN_LAMBDA =  1.050000 æm     MIN_DATA =    .61790                    
 MAX_LAMBDA =  1.250000 æm     MAX_DATA =    .85300                    
 SCANSPEED  = 15.000000 NM/MIN SLITWIDTH=   .00000 æm                  
  RESP TIME =   .5      sec SENSITIVITY = 5          DATE=93/02/12     
 12:07:12    93/02/12                                                  
  LUAG2                                                                
  This spectra is part of Database LASERS
 Database LASERS was created by Pat Cross working 
 at NASA Langley Research Center, Internal Operations Group,
 Aerospace Electronics Systems Division, Remote Sensing 
 Technology Branch. phone:(757)864-1633   fax:(757)864-7894 
     e-mail p.l.cross@larc.nasa.gov 
     homepage http://aesd.larc.nasa.gov/laser/dbmain.htm
  EOH     (1X,F11.4)                                                   
  1001.         
    293.3390    
    236.0000    
    219.1841    
    188.1402    
    275.9556    
    228.1723    
    316.1646    
    218.3168    
    213.3915    
    282.2390    
    224.9284    
    262.8278    
    217.4493    
    203.0222    
    219.4793    
    138.6571    
    261.9601    
    209.4535    
    142.8709    
    216.2344    
    161.4758    
    213.5118    
    294.2920    
    175.1800    
    258.1891    
    222.3246    
    307.9183    
    207.7172    
    212.2963    
    266.8495    
    238.1046    
    188.0271    
    213.9768    
    304.3146    
    301.7534    
    318.2951    
    382.7264    
    267.8429    
    346.4618    
    257.9655    
    198.3331    
    210.0376    
     91.4011    
    166.9630    
    204.7634    
    187.9668    
    249.6046    
    270.8706    
    282.6186    
    313.4725    
    203.7202    
    263.0259    
    279.5378    
    179.4561    
    276.8064    
    262.3303    
    219.3132    
    359.9114    
    316.6858    
    247.3438    
    376.1566    
    304.2209    
    263.4957    
    265.7052    
    225.0553    
    258.2089    
    303.3508    
    193.6372    
    298.2283    
    228.9434    
    285.9470    
    300.0938    
    268.9052    
    316.4650    
    232.8310    
    196.9955    
    213.4559    
    203.7744    
    296.4872    
    296.3130    
    334.3699    
    322.2414    
    372.3267    
    252.6921    
    324.1097    
    283.3348    
    211.7141    
    364.2682    
    197.1056    
    206.4365    
    249.0901    
    113.6057    
    213.0451    
    234.2817    
    222.2095    
    245.8365    
    271.8767    
    233.5844    
    254.8423    
    247.5214    
    192.6395    
    161.6078    
    142.4679    
    289.7430    
    275.2526    
    177.5193    
    234.3958    
    167.6777    
    179.3703    
    205.3269    
    171.9010    
    195.4718    
    245.2541    
    230.7940    
    237.7611    
    232.8258    
    206.4832    
    294.4627    
    108.8970    
    265.4815    
    270.0757    
    106.0072    
    207.8125    
    160.1418    
    195.5796    
    221.5607    
    178.6037    
    223.5900    
    266.2939    
    275.6604    
    223.0661    
    210.9978    
    144.3437    
    213.0259    
     80.0953    
     65.7489    
    183.9812    
    110.3113    
    186.0075    
    235.7778    
    178.5320    
    178.3572    
    187.6831    
    180.3829    
    263.4990    
    241.8743    
    201.2442    
    182.0592    
    227.0627    
    191.2125    
    255.2978    
    247.9730    
    247.7982    
    214.2893    
    180.8355    
    197.2933    
    159.1204    
    163.6921    
    151.6544    
    115.9342    
    258.3184    
    229.5505    
    248.4331    
    224.4399    
    150.6050    
    174.1613    
    176.3615    
    107.4336    
    168.8885    
    161.5931    
    135.3302    
    163.6168    
    237.1526    
    368.4236    
    332.3144    
    241.3917    
    248.3659    
    162.5667    
    176.6369    
    181.2120    
    164.4141    
    142.8876    
    126.1210    
    159.1426    
    225.5255    
    268.2543    
    260.9224    
    225.0002    
    205.7856    
    212.7478    
    293.6429    
    286.3016    
    205.0850    
    102.8819    
    171.4596    
    195.0465    
    228.1856    
    163.8110    
    249.2815    
    232.4245    
    277.5612    
    158.3632    
    243.8121    
    226.9590    
    248.2300    
    198.0507    
    326.7095    
    316.9625    
    257.0677    
    259.2782    
    230.4964    
    244.6185    
    242.0591    
    163.3810    
    225.0305    
    163.0303    
    265.2084    
    219.7424    
    283.9565    
    264.6822    
    393.7850    
    352.8203    
    333.4800    
    249.6664    
    299.6328    
    168.4000    
     85.2669    
    125.3423    
    227.3392    
    231.9279    
    312.9283    
    236.3437    
    231.4014    
    331.5498    
    331.3743    
    364.7510    
    271.2471    
    326.0583    
    330.6721    
    273.1070    
    239.5303    
    258.4347    
    248.7168    
    241.3878    
    310.4706    
    286.3862    
    274.2661    
    288.4236    
    200.0209    
    333.5296    
    280.7288    
    316.4191    
    237.4227    
    275.4251    
    260.9234    
    284.6296    
    224.8051    
    200.8182    
    288.8813    
    145.8109    
    274.1951    
    343.4011    
    271.4550    
    326.2804    
    311.7412    
    335.5097    
    364.1024    
    265.8011    
    330.1906    
    409.2112    
    262.8859    
    279.4275    
    250.6011    
    322.1274    
    290.8501    
    176.2495    
    312.0247    
    335.7945    
    306.8878    
    323.4670    
    344.8534    
    270.5026    
    334.9150    
    294.0482    
    332.1683    
    339.1806    
    245.7538    
    255.1210    
    305.1284    
    247.6105    
    403.1123    
    318.9608    
    302.0316    
    304.2484    
    311.2513    
    397.4248    
    294.1520    
    248.5887    
    360.8724    
    408.7420    
    360.5203    
    331.5709    
    288.3124    
    290.5278    
    393.4361    
    261.5013    
    309.1384    
    361.6876    
    229.9561    
    322.9754    
    315.6153    
    322.6231    
    336.8226    
    375.0337    
    322.0946    
    374.6814    
    360.1021    
    352.7267    
    180.5676    
    199.4285    
    270.8016    
    282.5755    
    313.5008    
    368.4684    
    274.8750    
    334.5317    
    423.2363    
    379.7719    
    475.9182    
    333.8265    
    384.0489    
    403.1038    
    419.7707    
    388.3257    
    407.3865    
    390.3770    
    549.4750    
    551.7220    
    556.3933    
    694.8439    
    733.7517    
    772.7370    
   1066.2347    
   1331.3048    
   1686.8956    
   2046.2733    
   2287.6560    
   2382.7966    
   2229.2749    
   1957.0249    
   1629.5127    
   1355.0975    
   1154.1631    
   1051.8673    
    927.8527    
    940.0264    
   1004.1891    
   1021.3701    
   1095.7535    
   1065.7196    
   1023.3218    
    966.1616    
    882.0444    
    805.6372    
    798.0975    
    805.2840    
    753.6292    
    797.5677    
    876.0571    
   1039.1071    
   1106.0886    
   1273.5350    
   1513.4500    
   1579.4851    
   1761.2329    
   1918.6810    
   1784.0591    
   1645.2086    
   1438.7960    
   1262.0750    
   1134.2407    
   1034.5035    
   1041.7781    
   1086.3591    
   1223.5608    
   1562.0663    
   2117.4846    
   2613.3315    
   3522.2556    
   4607.1436    
   5578.8301    
   6223.6240    
   6514.6943    
   6181.5483    
   5343.0229    
   4256.3071    
   3408.7751    
   2649.1948    
   2120.6047    
   2002.8342    
   1831.4198    
   1981.6465    
   2343.9075    
   2848.2214    
   3460.5142    
   4100.6904    
   4453.4888    
   4488.6577    
   4335.7646    
   4039.3479    
   3884.0847    
   3886.7693    
   4180.5835    
   4364.1582    
   4402.1069    
   4261.5122    
   3848.7205    
   3472.2241    
   2954.5540    
   2556.7114    
   2327.4756    
   2145.3835    
   1944.1222    
   1853.2028    
   1796.1957    
   1829.5798    
   1904.4739    
   2118.0928    
   2472.2502    
   2727.1099    
   3089.4993    
   3394.2017    
   3598.9297    
   3675.0718    
   3799.8889    
   3691.7161    
   3491.2983    
   3240.1223    
   2901.8948    
   2593.3901    
   2197.2117    
   1899.2234    
   1580.0363    
   1336.3076    
   1147.8824    
   1057.9680    
    916.5197    
    948.4761    
    889.0161    
    871.5812    
    952.8918    
    908.2259    
    977.2954    
   1019.2786    
   1121.1433    
   1306.4608    
   1618.4340    
   2018.6360    
   2490.9573    
   2794.8723    
   3230.5044    
   3106.0244    
   2935.8333    
   2737.3022    
   2391.3140    
   2263.9629    
   2314.0295    
   2521.4377    
   2986.7180    
   3609.3074    
   4272.1855    
   4744.4063    
   5048.2383    
   5203.3325    
   5008.4941    
   4776.5850    
   4385.2510    
   3903.7078    
   3402.6323    
   2973.8186    
   2799.2832    
   2728.7012    
   2877.7476    
   3157.2729    
   3370.8455    
   3448.9612    
   3454.3887    
   3134.4841    
   2852.1892    
   2458.7666    
   2106.9226    
   1934.4883    
   1714.6112    
   1686.1764    
   1835.4403    
   1853.3739    
   1988.2500    
   1988.0724    
   1852.8412    
   1744.2401    
   1531.4973    
   1379.0438    
   1013.0654    
    913.8185    
    748.7809    
    687.4329    
    521.8053    
    524.0513    
    446.4735    
    414.9358    
    562.3295    
    438.6996    
    416.8137    
    518.1382    
    440.5789    
    406.6401    
    353.5229    
    326.9275    
    314.7541    
    276.2347    
    307.2043    
    338.2208    
    340.4450    
    337.8652    
    352.1009    
    323.1066    
    358.9558    
    344.3595    
    324.9720    
    339.2004    
    267.0985    
    319.6397    
    355.4861    
    312.0872    
    383.9951    
    374.1906    
    419.7799    
    463.0562    
    458.0461    
    596.0613    
    749.7340    
    840.4645    
   1068.1221    
   1232.9946    
   1252.9153    
   1404.1168    
   1434.3523    
   1454.4756    
   1655.8750    
   1576.3555    
   1581.2876    
   1499.5156    
   1440.8948    
   1372.3254    
   1407.5815    
   1422.6077    
   1475.7360    
   1462.8525    
   1449.9786    
   1383.9054    
   1227.4578    
   1144.5972    
   1022.2681    
    770.1709    
    579.4510    
    586.5680    
    465.1461    
    503.6873    
    399.6210    
    534.8444    
    541.9456    
    454.5873    
    536.7367    
    568.1251    
    439.5600    
    470.7983    
    439.2037    
    299.4576    
    354.5102    
    272.7402    
    241.4531    
    291.5524    
    210.0358    
    262.4501    
    190.5881    
    195.1803    
    221.2632    
    194.8239    
    132.7096    
    173.0073    
    201.4476    
    287.3728    
    263.2403    
    198.5274    
    351.6587    
    293.8528    
    181.2949    
    231.2510    
    171.4028    
     92.7296    
    125.8146    
      0.0000    
    156.3941    
    194.3577    
    227.6122    
    241.7788    
    251.1699    
    308.5040    
    337.1422    
    200.4468    
    219.3734    
    271.8263    
    166.5224    
    228.3974    
    190.0092    
    175.5215    
    290.1074    
    282.7358    
    172.6018    
    277.5864    
    231.9290    
    289.2151    
    150.4457    
    219.4435    
    327.0793    
    235.8198    
    192.6407    
    280.9511    
    213.7718    
    227.9329    
    323.6057    
    225.1850    
    294.4459    
    217.6584    
    274.9089    
    315.5085    
    303.3285    
    307.9494    
    367.8680    
    286.0017    
    425.3730    
    478.3817    
    367.1537    
    410.3564    
    359.5755    
    268.1530    
    318.3476    
    282.1748    
    236.4957    
    286.6124    
    252.8895    
    233.5674    
    288.4750    
    350.7494    
    297.7133    
    292.7355    
    369.4689    
    323.5886    
    229.9260    
    296.8198    
    296.6411    
    243.7433    
    229.2111    
    286.5092    
    255.1771    
    281.3563    
    290.7695    
    297.7898    
    352.8799    
    266.2589    
    383.8298    
    321.0860    
    282.5016    
    349.5793    
    354.2140    
    344.4108    
    365.8936    
    356.0846    
    295.8229    
    382.2204    
    307.4666    
    237.7739    
    287.9084    
    323.7451    
    299.5491    
    357.0597    
    246.4535    
    373.5593    
    315.6426    
    353.9381    
    332.1079    
    334.3339    
    216.6730    
    249.9905    
    254.6007    
    299.9818    
    256.6385    
    287.6240    
    366.7737    
    337.7114    
    356.7834    
    412.0533    
    358.8334    
    377.9261    
    334.4124    
    363.1118    
    399.0906    
    415.8073    
    442.2076    
    439.6104    
    502.3875    
    504.6341    
    511.7325    
    443.7307    
    460.4859    
    518.4753    
    513.4431    
    556.9906    
    578.7098    
    578.5307    
    588.0923    
    619.6019    
    604.7912    
    592.4277    
    609.3099    
    567.7199    
    521.3608    
    496.9171    
    448.2994    
    540.2538    
    438.2671    
    525.3204    
    617.6311    
    505.5440    
    471.4290    
    434.9529    
    483.1845    
    478.1583    
    494.9459    
    460.8472    
    513.9961    
    545.3962    
    598.7692    
    649.8436    
    639.8917    
    669.0430    
    671.3104    
    690.7119    
    700.3302    
    690.3533    
    704.8714    
    756.2191    
    667.7879    
    667.6086    
    780.2654    
    834.2736    
    866.1844    
    910.5211    
    994.6960    
   1099.2112    
   1174.1465    
   1312.4114    
   1372.9429    
   1573.9077    
   1630.1028    
   1601.7164    
   1581.0474    
   1591.1101    
   1435.3026    
   1331.1932    
   1290.5999    
   1187.2307    
   1259.9850    
   1099.1976    
   1206.7844    
   1287.1790    
   1327.4084    
   1461.6630    
   1456.3948    
   1525.0292    
   1558.0676    
   1588.5977    
   1399.7788    
   1328.6805    
   1257.8312    
   1057.0920    
   1004.5952    
    875.4487    
    907.4343    
    850.3831    
    847.7341    
    874.7305    
    835.0353    
    810.1962    
    790.3127    
    841.8997    
    807.1943    
    940.5138    
    890.7860    
    890.6064    
    890.4268    
    885.2997    
    956.9860    
   1021.4554    
   1108.6349    
   1198.7063    
   1213.6073    
   1405.4408    
   1321.6619    
   1341.7170    
   1162.6624    
   1032.4751    
    965.1221    
    910.3730    
    858.2422    
    791.4636    
    756.8382    
    619.4617    
    553.4649    
    553.2852    
    516.6332    
    448.5491    
    499.2762    
    528.2445    
    557.2536    
    574.1221    
    661.8411    
    676.3480    
    693.3167    
    786.4841    
    781.3811    
    879.9078    
    892.0995    
    941.4861    
    956.1993    
   1020.6859    
    940.9466    
    950.6946    
    770.0981    
    730.5893    
    742.6918    
    605.3819    
    641.8408    
    546.5355    
    560.9620    
    575.3978    
    555.7318    
    611.6249    
    535.9046    
    603.9426    
    657.5244    
    603.5828    
    598.5217    
    588.5845    
    503.2318    
    464.2359    
    447.0958    
    347.8723    
    403.1930    
    400.5977    
    296.7906    
    323.0692    
    342.1526    
    344.3823    
    334.5664    
    202.3621    
    254.8871    
    139.8897    
    261.7261    
    259.1461    
    191.8935    
    203.6735    
    301.8424    
    260.8258    
    219.8904    
    241.2766    
    238.6988    
    231.3287    
    202.4129    
    228.5719    
    175.7479    
    125.4452    
     61.0050    
    172.8189    
    179.8083    
    127.1091    
    215.3353    
    112.4496    
    224.5558    
    308.4012    
    260.1624    
    257.5834    
    207.0705    
    262.0224    
    297.8793    
    220.8984    
    249.4833    
    256.5022    
    189.2400    
    217.7818    
    253.5615    
    128.9940    
    250.8013    
    159.6591    
    202.5151    
    168.8544    
    175.8436    
    235.5105    
    273.7253    
    149.0261    
    237.3677    
    208.4346    
    203.4654    
    227.2379    
    136.1914    
    183.7847    
    257.8762    
    190.5994    
    180.8519    
    218.9676    
    235.5643    
    358.0401    
    263.9961    
    232.6252    
    201.3012    
    124.6663    
    239.2775    
    234.3017    
    164.7066    
    174.0865    
    193.0391    
    168.9442    
    219.0173    
    218.8369    
    261.8312    
    261.6507    
    179.9964    
    234.8942    
    328.4542    
    208.1722    
    258.3470    
    210.2067    
    164.5689    
    305.8813    
    228.8360    
    219.0678    
    204.5150    
    111.1597    
    189.7906    
    187.2183    
    155.9570    
    249.1602    
    155.5959    
    179.3184    
    272.6342    
    267.6477    
    315.5716    
    293.7294    
    209.5333    
    235.7201    
    273.9528    
    244.9557    
    225.5860    
    194.2617    
    141.4887    
    261.0383    
    232.0569    
    267.8833    
    248.4907    
    262.7166    
    327.4961    
    264.7579    
    266.9801    
    300.4638    
    177.9178    
    177.7371    
    199.0970    
    184.5529    
    181.9805    
    220.1171    
    265.5346    
    212.5658    
    272.3820    
    240.9810    
    274.4245    
    199.8643    
    221.2498    
    295.5269    
    240.0773    
    259.1025    
    316.6540    
    186.8097    
    306.6589    
    258.3794    
    250.9941    
    212.4320    
    212.2512    
    152.2445    
    223.8752    
    190.1502    
    230.7087    
