  11100 11  1 03T25.SP   PWP031 TLL  .000 # SI 081688 00.01   1        
  PROGRAM PE-CONVERT VERSION 02.30                                     
  USER TLL DATE & TIME  1988 08 17 14.18 55.98    4.8400    295K #     
 AU1 HO 200     0     0 YAG             1.700000 - 2.250000 .00020     
 FILE NAME ON PE-3600 = 003T25.SP         ON PC = 003T0025.SP          
 NO_POINTS  =  2751.    pts   DATA_INTV =  .000200 æm                  
 MIN_LAMBDA =  1.700000 æm     MIN_DATA =    .00050                    
 MAX_LAMBDA =  2.250000 æm     MAX_DATA =  12600.00                    
 SCANSPEED  = .03000000 æm/min SLITWIDTH=   .00020 æmITA =   0.        
       RESP =    .500   sec        ISMS =   0.       DATE=88/08/16     
       INST = 509.                    ? =   0.                         
 HO:YAG(2%HO);.5SEC. RES.;SAMPLE CODE WP031                            
  This spectra is part of Database LASERS
 Database LASERS was created by Pat Cross working 
 at NASA Langley Research Center, Internal Operations Group,
 Aerospace Electronics Systems Division, Remote Sensing 
 Technology Branch. phone:(757)864-1633   fax:(757)864-7894 
     e-mail p.l.cross@larc.nasa.gov 
     homepage http://aesd.larc.nasa.gov/laser/dbmain.htm
  EOH     (1X,F11.4)                                                   
  2751.         
     83.4614    
     89.9664    
     92.9399    
     90.2574    
     92.5230    
     89.1355    
     89.9870    
     89.4266    
     87.4510    
     85.4767    
     79.9723    
     84.3564    
     82.3828    
     83.2347    
     80.5544    
     79.2894    
     80.8454    
     79.5803    
     83.2558    
     84.8132    
     87.7846    
     87.9301    
     90.9014    
     91.7545    
     91.1924    
     87.8046    
     88.6575    
     88.8030    
     88.9485    
     93.3334    
     89.2394    
     87.9718    
     86.7044    
     86.8499    
     86.9954    
     82.9043    
     78.1099    
     74.7272    
     85.4591    
     83.4861    
     87.8682    
     90.8396    
     90.2776    
     93.2504    
     93.3959    
     97.0747    
     97.2202    
     91.0049    
     93.2701    
     93.4156    
     95.6821    
     97.9474    
     97.3859    
     89.0535    
     90.6117    
     92.1684    
     88.7835    
     86.1042    
     82.7197    
     82.1602    
     84.4232    
     89.5107    
     93.1864    
     94.0393    
     95.5971    
     95.7425    
    100.8359    
     98.8605    
     96.1788    
     92.7931    
     95.7638    
     97.3226    
     97.4680    
     94.7860    
     87.1642    
     89.4270    
     83.9273    
     84.0727    
     84.9231    
     84.3635    
     87.3315    
     85.3593    
     91.8580    
     95.5344    
     99.2128    
     95.8252    
     92.4396    
     95.4103    
     96.2613    
     97.8198    
     96.5521    
     94.5791    
     95.4300    
     92.7511    
     92.8964    
     93.7480    
     88.2450    
     94.0388    
     93.4779    
     92.2110    
     93.7687    
     94.6203    
     96.1782    
     98.4420    
    103.5339    
    108.6265    
    103.1170    
    103.2623    
     97.7559    
    103.5530    
    107.2328    
    101.7245    
     99.0445    
     96.3645    
     97.9225    
     99.4806    
    103.1570    
    103.3024    
     99.2094    
     95.1181    
     98.0882    
    101.0582    
    101.9092    
    100.6433    
    102.9073    
    105.8785    
    108.8513    
    107.5828    
     95.7209    
    100.1025    
    101.6606    
    102.5115    
     99.8321    
     97.1527    
     97.2980    
     99.5618    
    100.4134    
     97.7339    
     99.2915    
     97.3193    
     96.7578    
     96.9031    
    104.1100    
    103.5496    
    103.6949    
    106.6655    
    108.9301    
    110.4890    
    112.7551    
    111.4865    
    108.0978    
    109.6565    
    106.9760    
    113.4816    
    112.2129    
    110.2377    
    108.9695    
    111.9419    
    115.6221    
    115.0595    
    108.8448    
    107.5761    
    107.7214    
    111.3999    
    115.0796    
    111.6905    
    114.6632    
    113.3946    
    117.0748    
    115.8060    
    116.6574    
    120.3386    
    115.5348    
    118.5074    
    115.8253    
    115.2636    
    116.8228    
    109.1947    
    115.6994    
    110.1908    
    111.0435    
    114.0146    
    109.9209    
    110.0661    
    110.2114    
    111.7697    
    112.6215    
    108.5287    
    112.2054    
    109.5247    
    114.6158    
    119.0014    
    119.8528    
    115.0515    
    113.0768    
    113.2220    
    114.7796    
    114.9248    
    117.1911    
    112.3898    
    114.6547    
    119.7466    
    121.3050    
    116.5037    
    109.5849    
    113.9668    
    113.4063    
    115.6712    
    115.1098    
    112.4290    
    117.5201    
    119.0789    
    120.6370    
    122.9023    
    119.5145    
    114.7131    
    119.0972    
    115.7092    
    119.3876    
    118.1193    
    119.6780    
    117.7039    
    117.8491    
    120.1135    
    123.7932    
    119.6980    
    117.7232    
    121.4019    
    120.1335    
    121.6922    
    121.8374    
    124.8094    
    127.7813    
    128.6346    
    126.6590    
    129.6322    
    127.6556    
    124.9734    
    125.1186    
    118.9030    
    120.4622    
    115.6629    
    118.6328    
    117.3651    
    123.8697    
    126.1346    
    126.9868    
    123.5975    
    115.9727    
    118.9432    
    123.3270    
    124.1780    
    123.6173    
    123.0549    
    126.7340    
    126.1722    
    127.0243    
    127.1694    
    126.6076    
    123.2199    
    124.7783    
    123.5101    
    123.6552    
    115.3260    
    121.8258    
    119.1462    
    121.4104    
    119.4365    
    118.8753    
    119.7267    
    124.8162    
    124.2547    
    127.2257    
    132.3194    
    126.8100    
    126.2475    
    132.0468    
    132.1918    
    131.6308    
    131.7758    
    129.0941    
    131.3591    
    127.9708    
    130.9423    
    133.2075    
    131.2325    
    127.1378    
    126.5763    
    130.9609    
    130.3999    
    125.5985    
    127.1566    
    120.2392    
    123.2090    
    119.8241    
    123.4992    
    126.4689    
    125.9084    
    130.9980    
    136.0917    
    135.5288    
    137.7944    
    131.5783    
    127.4844    
    127.6295    
    127.0689    
    126.5068    
    120.2980    
    121.1482    
    118.4705    
    125.6751    
    125.1139    
    120.3173    
    120.4624    
    122.7254    
    124.2809    
    124.4260    
    123.1605    
    126.8355    
    125.5681    
    129.2447    
    131.5084    
    136.5998    
    138.1588    
    131.2361    
    134.2085    
    135.7671    
    131.6712    
    133.2302    
    129.1372    
    134.2261    
    132.9587    
    132.3963    
    131.8357    
    128.4498    
    131.4201    
    135.8038    
    132.4158    
    133.9738    
    136.2388    
    134.9705    
    135.1155    
    138.7934    
    146.0078    
    140.4972    
    143.4696    
    139.3734    
    145.1741    
    148.8559    
    141.9292    
    137.1263    
    133.0330    
    135.2965    
    135.4415    
    137.0005    
    131.4948    
    130.9336    
    130.3716    
    126.9881    
    131.3686    
    130.1013    
    123.8950    
    128.2740    
    123.4793    
    131.3864    
    132.2384    
    133.0896    
    132.5284    
    134.7921    
    134.9371    
    139.3201    
    136.6398    
    129.7237    
    131.2807    
    132.1308    
    133.6881    
    133.1261    
    136.0968    
    129.8875    
    131.4435    
    132.2954    
    128.9107    
    131.1733    
    127.7891    
    131.4632    
    130.9022    
    132.4582    
    140.3703    
    141.9293    
    140.6602    
    140.0995    
    140.2444    
    140.3894    
    137.7096    
    137.8546    
    135.8800    
    140.9691    
    143.9395    
    139.1406    
    135.0492    
    140.1360    
    140.2809    
    141.8387    
    141.2780    
    137.1843    
    130.2727    
    131.1225    
    134.0906    
    138.4710    
    137.2036    
    135.9364    
    138.1987    
    137.6383    
    140.6080    
    141.4592    
    136.6609    
    139.6302    
    136.2456    
    137.8025    
    137.9474    
    133.8577    
    133.2961    
    138.3821    
    142.7633    
    145.0266    
    141.6405    
    138.9617    
    139.1066    
    140.6619    
    135.8667    
    137.4233    
    143.2161    
    146.1857    
    146.3305    
    148.5951    
    151.5668    
    152.4177    
    151.8566    
    144.2302    
    144.3751    
    143.8137    
    144.6648    
    141.2797    
    142.8350    
    144.3931    
    145.2442    
    148.2138    
    142.7092    
    142.8540    
    141.5868    
    145.2623    
    142.5834    
    146.9645    
    145.6968    
    147.2542    
    150.2231    
    151.7820    
    154.0461    
    152.0717    
    143.7421    
    148.8288    
    146.1493    
    145.5872    
    149.9706    
    143.0543    
    148.1412    
    141.9314    
    146.3113    
    148.5756    
    158.6116    
    165.1202    
    163.1430    
    156.9262    
    159.8978    
    160.7489    
    160.1875    
    163.1590    
    168.2555    
    171.2300    
    172.7904    
    176.4750    
    176.6198    
    176.0566    
    174.7854    
    172.0989    
    171.5368    
    170.2663    
    165.4600    
    163.4841    
    171.4084    
    170.1380    
    169.5761    
    167.5978    
    167.0361    
    171.4247    
    171.5695    
    166.0551    
    176.8126    
    169.8813    
    174.9794    
    182.9111    
    188.0145    
    188.1593    
    186.8860    
    190.5742    
    187.8850    
    186.6126    
    183.2163    
    176.9894    
    175.7186    
    177.2789    
    174.5936    
    174.0307    
    174.1755    
    173.6127    
    172.3424    
    172.4872    
    174.0470    
    172.0701    
    167.9722    
    171.6514    
    178.8713    
    181.8478    
    183.4078    
    184.2616    
    189.3631    
    193.7589    
    192.4870    
    188.3804    
    188.5251    
    179.4670    
    172.5372    
    174.0966    
    171.4113    
    171.5560    
    169.5802    
    173.9673    
    176.9418    
    174.9650    
    171.5733    
    173.1325    
    169.7424    
    170.5933    
    170.0318    
    175.8333    
    180.2225    
    190.2780    
    187.5904    
    199.7786    
    200.6324    
    197.2324    
    194.5432    
    191.1462    
    192.7078    
    198.5210    
    196.5393    
    193.1419    
    191.1614    
    191.3061    
    190.0343    
    188.7626    
    188.9073    
    184.0980    
    184.9497    
    185.0944    
    184.5321    
    183.9682    
    184.8215    
    190.6292    
    197.8564    
    212.8911    
    220.1334    
    217.4386    
    220.4228    
    217.0189    
    217.1636    
    216.5975    
    211.7759    
    211.2102    
    204.9732    
    199.4478    
    197.4667    
    199.7372    
    202.7169    
    207.8230    
    207.2594    
    205.9858    
    204.0036    
    201.3138    
    201.4585    
    198.0611    
    197.4964    
    204.0188    
    210.5435    
    224.8812    
    231.4194    
    231.5641    
    226.7358    
    224.0394    
    218.5051    
    228.5906    
    223.0539    
    222.4885    
    215.5370    
    204.3370    
    205.8992    
    199.6661    
    199.8107    
    205.6234    
    205.7681    
    207.3304    
    201.0986    
    205.4940    
    204.9299    
    210.0359    
    215.8536    
    205.3638    
    210.4697    
    220.5441    
    228.4971    
    231.4832    
    233.7594    
    231.0620    
    241.1555    
    249.1235    
    249.9806    
    244.4341    
    238.1790    
    231.2192    
    226.3933    
    230.7981    
    227.3925    
    239.6138    
    239.7584    
    235.6393    
    235.0724    
    248.7249    
    259.5448    
    259.6894    
    261.9717    
    262.8279    
    271.5234    
    280.9405    
    283.2254    
    283.3700    
    279.9470    
    290.7988    
    307.3827    
    319.6943    
    329.1538    
    332.8819    
    338.0479    
    351.8318    
    360.5999    
    368.6563    
    386.0836    
    407.1490    
    424.6404    
    452.3111    
    474.9642    
    514.4352    
    575.3206    
    649.1237    
    734.6292    
    843.4202    
    975.4649    
   1133.2026    
   1301.2506    
   1466.4720    
   1630.3107    
   1780.2767    
   1923.2463    
   2065.6743    
   2198.9211    
   2294.8271    
   2336.6594    
   2335.9336    
   2283.9995    
   2207.3755    
   2122.7903    
   2021.1543    
   1900.4719    
   1744.9675    
   1579.6373    
   1406.5714    
   1248.8859    
   1118.2919    
    986.2770    
    871.0202    
    768.2449    
    696.1348    
    636.3271    
    582.7363    
    528.6957    
    483.6570    
    453.3065    
    433.8956    
    414.5198    
    403.8368    
    401.0952    
    396.9129    
    401.3842    
    382.0710    
    373.5800    
    370.8479    
    373.1505    
    371.1369    
    377.0355    
    379.3400    
    373.0082    
    370.2765    
    376.1750    
    384.2370    
    387.9818    
    401.0986    
    417.8432    
    423.7679    
    435.4826    
    457.3560    
    465.4788    
    473.6086    
    483.1967    
    505.8980    
    533.7603    
    574.8873    
    627.9640    
    675.3880    
    731.2155    
    785.8475    
    846.0355    
    909.6049    
    995.6888    
   1090.1992    
   1183.2449    
   1240.3151    
   1311.8655    
   1369.6492    
   1434.9264    
   1490.9980    
   1536.9081    
   1574.1350    
   1595.2976    
   1606.7783    
   1600.4438    
   1597.3499    
   1588.5957    
   1582.2719    
   1571.1084    
   1553.5082    
   1552.8477    
   1577.1941    
   1601.5994    
   1629.3069    
   1679.9037    
   1743.0519    
   1811.5433    
   1882.9849    
   1939.8536    
   1979.3884    
   2019.9159    
   2047.0701    
   2062.4395    
   2045.6694    
   2026.3961    
   2009.6854    
   1988.7990    
   1936.1360    
   1897.8928    
   1863.9408    
   1832.5852    
   1798.8486    
   1766.0463    
   1735.8077    
   1722.0220    
   1709.8918    
   1683.8969    
   1648.2079    
   1611.0231    
   1559.4540    
   1508.9437    
   1454.6918    
   1399.9301    
   1344.6699    
   1288.1349    
   1234.2522    
   1186.0903    
   1149.7646    
   1122.0618    
   1112.9397    
   1105.3695    
   1098.5759    
   1107.9727    
   1128.1917    
   1170.1586    
   1221.6478    
   1285.9434    
   1393.3701    
   1539.6539    
   1708.4503    
   1926.6971    
   2194.9648    
   2508.2854    
   2874.3201    
   3292.7856    
   3752.7917    
   4185.2837    
   4711.8188    
   5270.0845    
   5782.3398    
   6237.3428    
   6719.9370    
   7185.8130    
   7586.6865    
   7931.8276    
   8231.8682    
   8501.3662    
   8695.7725    
   8823.6855    
   8871.1328    
   8801.2168    
   8640.2432    
   8384.5977    
   8042.6836    
   7630.2305    
   7191.8569    
   6755.3477    
   6326.3203    
   5915.6426    
   5526.5889    
   5199.6753    
   4898.3652    
   4629.4253    
   4412.8667    
   4221.5820    
   4086.1013    
   3991.0322    
   3941.3616    
   3920.2297    
   3919.3618    
   3926.5925    
   3949.0405    
   3973.5713    
   3999.1787    
   4037.1250    
   4080.3474    
   4109.3105    
   4123.8955    
   4092.0930    
   4051.1609    
   4004.2695    
   3938.3113    
   3855.6660    
   3767.6936    
   3685.4119    
   3597.8953    
   3501.3958    
   3396.1692    
   3264.4319    
   3136.2327    
   3009.6084    
   2880.8611    
   2760.0300    
   2669.2417    
   2591.6951    
   2525.3311    
   2476.9731    
   2449.0017    
   2418.4824    
   2409.8821    
   2417.8962    
   2447.8240    
   2484.8799    
   2539.7529    
   2602.0386    
   2690.7129    
   2766.5723    
   2834.7910    
   2896.1309    
   2957.8357    
   3029.1838    
   3103.8301    
   3187.4934    
   3292.7585    
   3433.7834    
   3615.9636    
   3859.5671    
   4147.2275    
   4467.6196    
   4858.9976    
   5301.5522    
   5708.4404    
   6180.9790    
   6718.5015    
   7288.3203    
   7869.1416    
   8453.1416    
   8999.1182    
   9455.6201    
   9816.2402    
  10048.0137    
  10154.8496    
  10142.0586    
  10008.2637    
   9768.7588    
   9432.4648    
   9051.7998    
   8646.2598    
   8279.1543    
   7924.6567    
   7615.1323    
   7344.1548    
   7114.4883    
   6923.5728    
   6766.7124    
   6659.5425    
   6563.9170    
   6501.5703    
   6449.9253    
   6408.8247    
   6337.1826    
   6235.6353    
   6095.0713    
   5926.8926    
   5751.7534    
   5568.8589    
   5393.8149    
   5221.6924    
   5067.0688    
   4923.6372    
   4808.5767    
   4705.6885    
   4631.9336    
   4587.7759    
   4566.3774    
   4565.4463    
   4573.1240    
   4582.9624    
   4599.2847    
   4609.1475    
   4606.0513    
   4596.4800    
   4569.6836    
   4521.5107    
   4463.9722    
   4382.4180    
   4287.8818    
   4204.5889    
   4105.4888    
   4006.3152    
   3908.0859    
   3806.7866    
   3702.5146    
   3574.8289    
   3439.0547    
   3307.9023    
   3186.8657    
   3054.2173    
   2923.2542    
   2792.1221    
   2662.6360    
   2537.4089    
   2409.3203    
   2296.6082    
   2197.9353    
   2112.9126    
   2043.7415    
   1989.2684    
   1944.2576    
   1908.5851    
   1875.5221    
   1858.2754    
   1836.1030    
   1827.1685    
   1820.7162    
   1815.0912    
   1793.8345    
   1767.7010    
   1742.4515    
   1699.3250    
   1660.4369    
   1607.9585    
   1558.9617    
   1506.1980    
   1468.8296    
   1426.0417    
   1392.9177    
   1374.1000    
   1363.9875    
   1367.2861    
   1380.8495    
   1391.2667    
   1424.6713    
   1466.9399    
   1527.7919    
   1603.5192    
   1701.7751    
   1791.9292    
   1888.6796    
   2007.2986    
   2122.2000    
   2246.9751    
   2355.8992    
   2478.2695    
   2592.3306    
   2685.2378    
   2764.5303    
   2824.4360    
   2875.5593    
   2899.4578    
   2910.5850    
   2902.4910    
   2897.1470    
   2898.2058    
   2902.9233    
   2921.3821    
   2956.4148    
   3014.6604    
   3104.9063    
   3206.3040    
   3350.6565    
   3530.0483    
   3738.3618    
   4014.9431    
   4323.2383    
   4706.1592    
   5148.0522    
   5607.3052    
   6115.3438    
   6685.2061    
   7302.3252    
   7981.0518    
   8654.6982    
   9317.3066    
   9976.2324    
  10591.1055    
  11183.5420    
  11695.6709    
  12113.3340    
  12407.6240    
  12600.0459    
  12590.8408    
  12460.9805    
  12205.9229    
  11876.0449    
  11488.9746    
  11069.4189    
  10606.3193    
  10172.3418    
   9723.9678    
   9265.4375    
   8787.5439    
   8323.0654    
   7915.6587    
   7528.0151    
   7143.3672    
   6874.1099    
   6643.1704    
   6450.7495    
   6302.4331    
   6173.7749    
   6083.9570    
   6024.5591    
   5966.7319    
   5916.5688    
   5888.5996    
   5859.4888    
   5835.3169    
   5795.4644    
   5744.9272    
   5661.1509    
   5542.5781    
   5400.8755    
   5240.4404    
   5053.1543    
   4834.9824    
   4607.3052    
   4382.4341    
   4158.2290    
   3943.8481    
   3762.5996    
   3615.7737    
   3512.6211    
   3452.8218    
   3431.7788    
   3464.6843    
   3538.4392    
   3648.0261    
   3785.6304    
   3959.4521    
   4157.8940    
   4386.5601    
   4634.4365    
   4900.5898    
   5130.5986    
   5350.7695    
   5521.4199    
   5667.4268    
   5740.6807    
   5783.0073    
   5772.2886    
   5714.6855    
   5615.7310    
   5468.4023    
   5294.3140    
   5084.6704    
   4842.7539    
   4606.3799    
   4383.7339    
   4156.5020    
   3940.2258    
   3739.2854    
   3556.7737    
   3423.4556    
   3320.3408    
   3255.0493    
   3217.4497    
   3220.4189    
   3242.2551    
   3295.4055    
   3364.1040    
   3456.3652    
   3566.9768    
   3687.6497    
   3812.7373    
   3948.4495    
   4099.2881    
   4248.1958    
   4399.2764    
   4549.3799    
   4690.8262    
   4843.0459    
   4979.6538    
   5115.8242    
   5241.2026    
   5339.1699    
   5435.7363    
   5517.9072    
   5586.5117    
   5629.3784    
   5659.2954    
   5653.4790    
   5617.9253    
   5563.5732    
   5488.3716    
   5412.5503    
   5353.4800    
   5297.0498    
   5256.9722    
   5242.2168    
   5244.6514    
   5272.3247    
   5335.8364    
   5406.7183    
   5507.4209    
   5624.5488    
   5739.4126    
   5854.3486    
   5960.7485    
   6039.7612    
   6075.8423    
   6044.9985    
   5942.9258    
   5774.1211    
   5539.4546    
   5272.0430    
   4986.7803    
   4666.8696    
   4356.5771    
   4056.3623    
   3794.4480    
   3551.6477    
   3363.9490    
   3202.1331    
   3073.4009    
   2989.4312    
   2938.1519    
   2928.2251    
   2945.7703    
   2981.7258    
   3035.3567    
   3096.7056    
   3159.3550    
   3215.7957    
   3260.2554    
   3289.7329    
   3322.1448    
   3349.8916    
   3388.2302    
   3424.7893    
   3471.1169    
   3519.5889    
   3574.1296    
   3628.9585    
   3675.2227    
   3723.6702    
   3760.4387    
   3785.4031    
   3795.4910    
   3783.7029    
   3738.2322    
   3676.2297    
   3589.2124    
   3473.9507    
   3343.7629    
   3195.4670    
   3059.4590    
   2926.1377    
   2798.1299    
   2683.2988    
   2564.4341    
   2470.5232    
   2396.5552    
   2334.3372    
   2275.0669    
   2216.9915    
   2175.3855    
   2138.1814    
   2102.8020    
   2086.0728    
   2090.4321    
   2104.0789    
   2126.1995    
   2152.6108    
   2200.3726    
   2248.3550    
   2295.6995    
   2343.2607    
   2380.6287    
   2405.9531    
   2412.1843    
   2403.6338    
   2367.3384    
   2313.0620    
   2233.3938    
   2128.9158    
   2014.6016    
   1888.3055    
   1752.9241    
   1615.2700    
   1476.2532    
   1337.5172    
   1211.4586    
   1099.1689    
    994.9134    
    894.7042    
    813.3255    
    754.7823    
    703.9413    
    661.4210    
    625.6570    
    587.8313    
    571.9530    
    556.1003    
    538.8206    
    517.2263    
    496.4001    
    481.3854    
    472.8774    
    460.7762    
    453.0050    
    441.6462    
    429.5824    
    431.1619    
    427.7178    
    430.7316    
    432.3111    
    428.1492    
    422.5544    
    422.6982    
    419.2565    
    412.2339    
    408.0806    
    408.2244    
    401.2106    
    402.0700    
    407.2243    
    405.2201    
    411.8083    
    408.3717    
    405.6514    
    405.7951    
    407.3709    
    403.2202    
    405.5106    
    407.8022    
    410.8105    
    413.1023    
    423.2784    
    433.4644    
    455.1603    
    479.0629    
    503.7438    
    525.5861    
    551.8273    
    581.7744    
    604.5101    
    634.6089    
    657.4600    
    680.3601    
    700.3661    
    721.8861    
    736.7971    
    749.5093    
    754.8320    
    758.6779    
    752.8998    
    747.8656    
    737.6596    
    725.9875    
    715.0662    
    694.5872    
    682.9647    
    669.8871    
    653.8950    
    650.3762    
    646.8569    
    645.5358    
    653.0049    
    664.1453    
    678.2364    
    699.7029    
    733.0236    
    769.4135    
    815.6036    
    877.7111    
    948.4838    
   1028.8564    
   1113.6873    
   1207.7180    
   1297.1508    
   1390.5077    
   1483.9191    
   1565.3689    
   1635.3712    
   1692.0685    
   1725.4801    
   1747.5906    
   1753.4370    
   1756.0261    
   1738.2532    
   1713.2030    
   1680.9298    
   1619.7598    
   1564.5497    
   1511.2266    
   1453.4288    
   1388.8737    
   1311.4399    
   1232.2606    
   1160.6085    
   1098.6234    
   1033.2097    
    968.2095    
    920.8902    
    886.5165    
    869.4443    
    861.3640    
    868.2366    
    896.0845    
    939.0547    
    998.8496    
   1077.2876    
   1167.0923    
   1266.2279    
   1367.8900    
   1461.8444    
   1567.8544    
   1659.6106    
   1731.0345    
   1782.5112    
   1812.9224    
   1812.2467    
   1787.0270    
   1730.9401    
   1648.5151    
   1555.5555    
   1442.0652    
   1326.6852    
   1202.5410    
   1078.3473    
    955.6332    
    857.4859    
    775.8113    
    689.6364    
    627.5181    
    579.5758    
    536.9206    
    506.7058    
    475.1405    
    448.6958    
    423.0345    
    406.0111    
    390.4428    
    379.1744    
    365.7823    
    358.8089    
    348.2874    
    346.2989    
    344.3116    
    348.0075    
    346.7297    
    349.7155    
    352.7030    
    354.9800    
    357.2566    
    359.5345    
    349.7237    
    354.8433    
    356.4084    
    355.8417    
    358.1183    
    359.6847    
    362.6736    
    363.5297    
    368.6547    
    368.7983    
    368.2307    
    364.8150    
    358.5567    
    355.1444    
    351.7342    
    346.9042    
    339.2373    
    337.9612    
    336.6852    
    337.5377    
    343.3603    
    345.6346    
    340.0989    
    340.2425    
    339.6754    
    339.8189    
    336.4146    
    330.1743    
    323.2300    
    314.1662    
    309.3544    
    302.4247    
    299.7396    
    298.4700    
    295.7861    
    295.2238    
    298.1938    
    296.2169    
    298.4810    
    286.6156    
    284.6420    
    279.8459    
    279.2839    
    274.4905    
    266.8812    
    263.5019    
    264.3491    
    263.7890    
    265.3416    
    268.3029    
    268.4464    
    268.5900    
    270.8480    
    272.4015    
    269.0207    
    266.3465    
    260.8560    
    261.7037    
    256.9197    
    257.7672    
    254.3917    
    254.5352    
    256.0863    
    256.9328    
    262.7086    
    262.8521    
    263.6990    
    268.7736    
    266.1000    
    269.7645    
    267.0906    
    261.6009    
    261.0412    
    261.8879    
    269.0738    
    274.1495    
    277.1130    
    280.0764    
    283.7461    
    290.2404    
    292.5011    
    297.5885    
    299.1433    
    295.7565    
    298.7247    
    301.6937    
    301.8372    
    306.9286    
    305.6582    
    314.2874    
    321.5066    
    331.5649    
    335.9604    
    344.6140    
    351.8537    
    357.6781    
    361.3735    
    364.3592    
    365.2144    
    371.0459    
    373.3226    
    379.8702    
    386.4210    
    394.4022    
    402.3885    
    410.3817    
    424.8115    
    436.3986    
    441.5526    
    448.8576    
    451.8678    
    466.3542    
    473.6761    
    478.8487    
    483.3040    
    484.8854    
    495.0983    
    500.2794    
    508.3458    
    522.1876    
    525.9396    
    536.9136    
    547.1766    
    554.5547    
    559.0411    
    563.5292    
    565.8462    
    571.7869    
    579.9064    
    587.3069    
    585.9984    
    586.8678    
    589.9156    
    596.5952    
    612.7348    
    621.6136    
    631.9579    
    639.3942    
    646.8365    
    655.7429    
    662.4644    
    665.5332    
    668.6020    
    676.7949    
    685.7269    
    695.4008    
    705.0835    
    712.5688    
    728.1511    
    743.7547    
    763.8114    
    781.6875    
    802.5571    
    827.9240    
    850.3751    
    873.6205    
    900.6569    
    927.7633    
    959.4527    
    995.7668    
   1039.0284    
   1081.7094    
   1138.3346    
   1197.5769    
   1253.2903    
   1321.7612    
   1389.9027    
   1462.4421    
   1537.8790    
   1609.8622    
   1675.0919    
   1742.3572    
   1814.1451    
   1878.2095    
   1936.8831    
   1988.4098    
   2033.5154    
   2064.5801    
   2080.6387    
   2087.4893    
   2084.2786    
   2068.5027    
   2036.0452    
   2003.6913    
   1953.2083    
   1899.6775    
   1833.3235    
   1773.0870    
   1714.0105    
   1663.3181    
   1606.4675    
   1553.9119    
   1507.1727    
   1466.1708    
   1433.2009    
   1394.8459    
   1362.1044    
   1332.5844    
   1307.8137    
   1285.4319    
   1267.7443    
   1239.2668    
   1215.4930    
   1195.6193    
   1176.5520    
   1165.9528    
   1151.5341    
   1140.9612    
   1127.3422    
   1115.2689    
   1105.4955    
   1086.5968    
   1068.4919    
   1051.1779    
   1043.7399    
   1031.0089    
   1014.5144    
    999.5559    
    988.3871    
    973.4671    
    966.0865    
    963.2225    
    956.6011    
    950.7351    
    947.1248    
    945.7667    
    944.4088    
    940.0506    
    928.1989    
    920.1042    
    911.2681    
    909.1673    
    910.8066    
    899.7369    
    898.3867    
    894.0482    
    897.9254    
    901.8049    
    897.4659    
    896.8613    
    894.7649    
    895.6551    
    890.5725    
    892.9547    
    887.8745    
    882.7952    
    888.1611    
    884.5737    
    889.1932    
    893.8147    
    900.6801    
    908.2958    
    924.1499    
    936.2787    
    949.1738    
    956.8243    
    970.4957    
    978.9141    
    991.1058    
   1007.0858    
   1022.3332    
   1038.3597    
   1049.8634    
   1074.2839    
   1095.7164    
   1119.4806    
   1145.5933    
   1162.5754    
   1181.8876    
   1202.7733    
   1224.4707    
   1234.6364    
   1245.5841    
   1253.4512    
   1264.4183    
   1266.8820    
   1275.5400    
   1274.1354    
   1280.4736    
   1280.6169    
   1286.9597    
   1292.5315    
   1299.6566    
   1299.0247    
   1296.8397    
   1290.7778    
   1292.4713    
   1286.4132    
   1285.7814    
   1282.0498    
   1275.9982    
   1277.6895    
   1271.6396    
   1274.1044    
   1271.1532    
   1278.2626    
   1275.3093    
   1287.0709    
   1288.7645    
   1288.1326    
   1288.2759    
   1286.8689    
   1283.9125    
   1284.0557    
   1278.0042    
   1283.5684    
   1281.3876    
   1286.9526    
   1286.3218    
   1294.2164    
   1288.9335    
   1285.2018    
   1290.7703    
   1288.5881    
   1287.9554    
   1282.6770    
   1271.9834    
   1257.4381    
   1249.8574    
   1231.4913    
   1214.6954    
   1193.3199    
   1179.6519    
   1162.9413    
   1156.1985    
   1141.0543    
   1122.1194    
   1110.0712    
   1094.9957    
   1089.0576    
   1075.5315    
   1058.9916    
   1048.5325    
   1039.5959    
   1039.7391    
   1035.3459    
   1031.7104    
   1034.8773    
   1035.0205    
   1040.4553    
   1048.1643    
   1049.8215    
   1052.2362    
   1044.8108    
   1045.7108    
   1037.5352    
   1023.3240    
   1007.6258    
    986.6848    
    968.7895    
    952.4263    
    939.0826    
    920.5234    
    901.9990    
    883.5073    
    870.9988    
    868.9105    
    852.7066    
    839.4938    
    827.7805    
    813.1215    
    805.8711    
    796.4111    
    784.7460    
    779.7288    
    769.5569    
    763.0750    
    769.1076    
    774.4058    
    777.4969    
    782.8000    
    791.7936    
    803.7519    
    811.2860    
    821.0439    
    818.9678    
    830.9556    
    838.5089    
    848.2915    
    853.6303    
    863.4277    
    871.0030    
    883.0497    
    900.3281    
    918.3820    
    928.9872    
    943.3456    
    951.7283    
    965.3672    
    973.7664    
    979.9184    
    988.3298    
    986.2171    
    992.3761    
    998.5387    
    997.9291    
   1003.3416    
   1009.5103    
   1014.1747    
   1022.6127    
   1036.3423    
   1038.7511    
   1047.2085    
   1049.6198    
   1060.3560    
   1073.3781    
   1078.8275    
   1085.0396    
   1088.2180    
   1097.4744    
   1110.5410    
   1119.0544    
   1134.4342    
   1151.3640    
   1169.0861    
   1181.4758    
   1207.6906    
   1223.9707    
   1237.9635    
   1253.5183    
   1271.4147    
   1284.6990    
   1289.4839    
   1304.3398    
   1308.3590    
   1322.4651    
   1338.1450    
   1350.7349    
   1369.5762    
   1378.3000    
   1390.9369    
   1394.2065    
   1407.6460    
   1417.9680    
   1425.1643    
   1422.1716    
   1410.5660    
   1406.7963    
   1392.8644    
   1380.5118    
   1358.8245    
   1338.7378    
   1321.7939    
   1305.6523    
   1291.0839    
   1278.0829    
   1258.1549    
   1245.9656    
   1239.1790    
   1229.3188    
   1214.0928    
   1211.1642    
   1209.0042    
   1200.7086    
   1205.4547    
   1207.9001    
   1213.4154    
   1225.0828    
   1235.2219    
   1253.0773    
   1282.5474    
   1302.0315    
   1329.3131    
   1356.6644    
   1388.7733    
   1423.3311    
   1460.3616    
   1492.0024    
   1531.6536    
   1568.2784    
   1615.4026    
   1660.3358    
   1699.8303    
   1741.8992    
   1793.8773    
   1838.7758    
   1879.7738    
   1920.1119    
   1946.5891    
   1977.2656    
   2001.4036    
   2023.9365    
   2034.0471    
   2046.6622    
   2055.1277    
   2056.9365    
   2064.5776    
   2067.2205    
   2083.2144    
   2084.1917    
   2086.8401    
   2094.5024    
   2094.6455    
   2095.6243    
   2094.0957    
   2081.7112    
   2064.3413    
   2045.3373    
   2024.7091    
   1996.6688    
   1962.1041    
   1930.1229    
   1898.2404    
   1869.7273    
   1832.3289    
   1796.6892    
   1766.8369    
   1736.2661    
   1721.0854    
   1705.9285    
   1684.3689    
   1674.0775    
   1658.1895    
   1658.3324    
   1656.8734    
   1665.0282    
   1673.1881    
   1682.9611    
   1710.4355    
   1733.1414    
   1765.6024    
   1793.2965    
   1826.7599    
   1861.9646    
   1900.5671    
   1938.4915    
   1976.5543    
   2013.9270    
   2057.2598    
   2097.4307    
   2136.9192    
   2194.2529    
   2240.8860    
   2294.5410    
   2346.7622    
   2406.9915    
   2467.5725    
   2528.5090    
   2588.9292    
   2648.8228    
   2696.6611    
   2750.9497    
   2798.3677    
   2839.7197    
   2867.7256    
   2887.6882    
   2900.4636    
   2912.3503    
   2916.1101    
   2909.9255    
   2901.9375    
   2875.9294    
   2849.0876    
   2816.0464    
   2784.0039    
   2759.1833    
   2708.6926    
   2665.5061    
   2624.2576    
   2578.7993    
   2537.0254    
   2496.2900    
   2462.6343    
   2434.2651    
   2413.7209    
   2393.2188    
   2375.3308    
   2369.4702    
   2367.0410    
   2378.3330    
   2381.0510    
   2384.6274    
   2389.9229    
   2397.8003    
   2402.2422    
   2407.5474    
   2404.2485    
   2397.5125    
   2386.4868    
   2378.9045    
   2359.3325    
   2337.2329    
   2310.0671    
   2271.9270    
   2235.6226    
   2191.0164    
   2137.3806    
   2076.5215    
   2011.8802    
   1946.8198    
   1865.0127    
   1796.0048    
   1723.4325    
   1650.5669    
   1578.2136    
   1509.5209    
   1452.2561    
   1392.1899    
   1340.2266    
   1286.9817    
   1237.8499    
   1198.1298    
   1157.0394    
   1120.6681    
   1090.4799    
   1061.8909    
   1042.4215    
   1017.7253    
   1003.5932    
    997.7325    
    982.8790    
    982.2734    
    981.6671    
    986.3057    
    990.1972    
    989.5894    
    994.9823    
   1004.1296    
   1009.5288    
   1020.1924    
   1012.0685    
   1011.4592    
   1006.3459    
   1001.9851    
    993.1254    
    979.7804    
    967.2001    
    950.1545    
    930.1564    
    916.8932    
    893.2471    
    865.2107    
    836.5132    
    816.7357    
    792.5839    
    761.1570    
    732.0177    
    699.3173    
    672.5347    
    650.8968    
    625.6869    
    610.6479    
    588.4199    
    572.7160    
    565.6636    
    560.0540    
    558.7599    
    556.7473    
    554.0157    
    556.3135    
    560.7684    
    570.9801    
    566.8067    
    560.4791    
    552.0002    
    547.1161    
    547.9778    
    546.6848    
    533.9149    
    524.0261    
    516.2932    
    509.2824    
    500.1325    
    493.8465    
    483.2836    
    472.0200    
    458.6327    
    451.6615    
    442.5648    
    429.9263    
    415.8868    
    407.5298    
    403.4236    
    398.6141    
    397.3420    
    403.1452    
    400.4579    
    406.9707    
    414.1942    
    422.1334    
    423.6945    
    430.9310    
    443.1438    
    449.6816    
    457.6470    
    470.6030    
    482.8608    
    498.7037    
    520.2934    
    541.9286    
    568.6412    
    592.5371    
    621.5469    
    654.9857    
    684.8972    
    724.3784    
    754.4882    
    785.4203    
    811.2921    
    837.9652    
    862.4879    
    878.1740    
    896.8528    
    902.1915    
    909.0189    
    915.1070    
    918.9670    
    916.8798    
    904.3909    
    896.3691    
    884.6469    
    868.4977    
    852.3742    
    834.0632    
    808.4275    
    782.1212    
    760.2745    
    737.0123    
    713.8056    
    693.5596    
    677.7100    
    664.7867    
    650.4316    
    642.6096    
    623.2266    
    620.4803    
    617.7340    
    616.4334    
    615.8542    
    621.7740    
    619.0283    
    615.5606    
    625.8144    
    629.5712    
    628.2682    
    626.2428    
    628.5539    
    627.9739    
    634.6230    
    631.8740    
    629.1251    
    627.0995    
    619.2975    
    612.2233    
    607.3159    
    593.0457    
    572.3252    
    554.5157    
    541.0370    
    521.8516    
    496.9940    
    472.1967    
    449.5892    
    430.5758    
    410.8903    
    393.3609    
    373.0430    
    345.7320    
    330.4203    
    317.2341    
    302.6655    
    286.7196    
    271.4967    
    256.9945    
    245.2968    
    235.0020    
    222.6350    
    206.1209    
    200.7173    
    190.4688    
    188.5350    
    185.2165    
    178.4410    
    175.8182    
    169.0492    
    171.2653    
    165.1902    
    163.9515    
    162.7139    
    154.5740    
    154.0275    
    152.1006    
    147.4165    
    146.1811    
    136.6782    
    133.3776    
    136.2741    
    130.9093    
    128.2998    
    123.6272    
    119.6445    
    119.7872    
    120.6176    
    115.2616    
    111.2824    
    107.9916    
    106.7609    
    104.8438    
    107.7322    
     93.4673    
     94.9816    
     92.3813    
     92.5241    
     92.6668    
     96.9235    
    100.4957    
     93.7807    
    100.0958    
    100.9239    
    102.4390    
    102.5817    
     97.2367    
     98.0653    
     93.4084    
     90.8090    
     89.5817    
     84.2440    
     84.3867    
     76.3137    
     79.1945    
     77.2844    
     74.0052    
     73.4645    
     71.5548    
     70.3294    
     69.7882    
     69.2470    
     72.8097    
     67.4817    
     70.3590    
     68.4501    
     69.2774    
     68.0525    
     66.8278    
     66.9705    
     70.5313    
     70.6740    
     72.8685    
     64.8077    
     65.6331    
     68.5103    
     72.0713    
     72.8980    
     68.9384    
     72.4994    
     70.5905    
     70.0502    
     69.5091    
     65.5511    
     62.9604    
     62.4207    
     64.6124    
     61.3397    
     62.1647    
     60.9419    
     63.1341    
     65.3258    
     66.1518    
     67.6614    
     67.8041    
     61.7980    
     60.5746    
     62.7664    
     67.6913    
     61.6856    
     58.4136    
     54.4611    
     55.9689    
     59.5253    
     58.3023    
     57.0795    
     57.9049    
     59.4123    
     62.9695    
     67.2104    
     65.3033    
     63.3975    
     62.1750    
     65.0490    
     67.9237    
     64.6512    
     63.4277    
     64.2534    
     60.9814    
     61.1241    
     63.3162    
     58.6793    
     58.1401    
     60.3299    
     57.7420    
     54.4742    
     62.1225    
     53.3949    
     53.5375    
     54.3616    
     55.8689    
     58.0588    
     55.4726    
     53.5677    
     55.7579    
     58.6293    
     60.8188    
     56.1857    
     54.2808    
     56.4710    
     56.6136    
     59.4851    
     57.5804    
     68.6449    
     63.3251    
     68.9302    
     67.0245    
     65.8014    
     65.2603    
     57.2141    
     55.9922    
     59.5463    
     56.2775    
     55.0566    
     51.7902    
     52.6138    
     56.1666    
     55.6271    
     54.4056    
     52.5032    
     50.6004    
     54.1522    
     57.0222    
     59.2106    
     57.3074    
     58.1313    
     52.8195    
     47.5098    
     49.0146    
     48.4765    
     47.9376    
     45.3547    
     48.9043    
     54.4995    
     56.0059    
     57.5117    
     51.5185    
     58.4790    
     55.2125    
     58.0821    
     57.5426    
     52.2315    
     50.3301    
     53.1983    
     53.3409    
     51.4386    
     48.8561    
     49.6801    
     45.7358    
     52.6913    
     52.8338    
     51.6133    
     51.7559    
     47.8110    
     53.4041    
     53.5467    
     50.9632    
     53.8318    
     50.5670    
     46.6229    
     52.2149    
     50.3141    
     53.8622    
     47.1932    
     50.0597    
     51.5649    
     56.4773    
     56.6199    
     48.5871    
     52.8165    
     46.1488    
     53.1016    
     53.2442    
     52.0248    
     51.4852    
     50.2661    
     50.4086    
     52.5950    
     47.2892    
     49.4740    
     44.8507    
     44.9933    
     43.0937    
     44.5976    
     50.1867    
     42.8414    
     45.7060    
     45.1677    
     46.6718    
     52.2616    
     47.6378    
     49.1421    
     45.8804    
     44.6615    
     46.8462    
     45.6281    
     43.7279    
     43.8704    
     46.7355    
     50.9625    
     48.3822    
     48.5247    
     42.5423    
     43.3653    
     54.3995    
     54.5420    
     54.0034    
     54.8271    
     52.2452    
     55.7933    
     55.9358    
     56.0783    
     50.0923    
     49.5540    
     49.0158    
     49.1583    
     53.3852    
     48.7634    
     44.8225    
     42.2445    
     43.0664    
     46.6110    
     39.9522    
     39.4138    
     43.6364    
     45.1396    
     46.6430    
     48.1457    
     49.6494    
     42.3090    
     46.5325    
     48.0359    
     50.2193    
     51.0433    
     49.1431    
     51.3283    
     50.1095    
     49.5706    
     51.7557    
     49.1758    
     50.6794    
     52.1832    
     50.9644    
     53.1481    
     50.5679    
     50.7104    
     50.8529    
     52.3566    
     50.4581    
     45.8389    
     48.0221    
     42.7241    
     44.9059    
     47.0890    
     49.2716    
     50.0944    
     46.1559    
     51.7403    
     52.5625    
     49.3043    
     49.4468    
     49.5892    
     49.7317    
     49.1930    
     48.6560    
     50.1591    
     40.7828    
     42.2840    
     44.4652    
     45.9676    
     52.2313    
     44.8926    
     48.4352    
     41.7800    
     43.2811    
     48.1824    
     51.7260    
     49.8277    
     49.9701    
     50.7928    
     51.6147    
     51.7571    
     47.1402    
     47.2826    
     46.0652    
     46.8868    
     48.3891    
     45.8127    
     46.6350    
     48.1373    
     44.2014    
     47.7413    
     45.8450    
     45.9874    
     42.7322    
     44.9136    
     47.7744    
     46.5571    
     45.3408    
     44.8028    
     42.9072    
     49.8464    
     54.0687    
     54.2111    
     57.0740    
     52.4554    
     55.9989    
     53.4203    
     50.1625    
     52.3457    
     54.5277    
     53.3098    
     57.5329    
     54.2748    
     53.0578    
     50.4803    
     46.5449    
     46.0077    
     48.8680    
     46.9721    
     42.3583    
     41.1430    
     42.6431    
     39.3911    
     42.9279    
     43.7504    
     42.5342    
     43.3551    
     48.2537    
     49.0749    
     50.5768    
     47.3217    
     48.1437    
     46.9270    
     48.4285    
     47.2118    
     50.0717    
     43.4212    
     45.6015    
     40.9895    
     45.8862    
     47.3858    
     46.8496    
     46.9919    
     42.3812    
     47.9553    
     43.3443    
     46.2027    
     47.7038    
     47.8462    
     48.6672    
     49.4898    
     45.5569    
     47.7371    
     42.4469    
     42.5892    
     44.7680    
     40.1575    
     47.0903    
     40.4422    
     41.2643    
     41.4066    
     38.1560    
     43.7281    
     41.8337    
     42.6549    
     38.7255    
     38.1892    
     39.0102    
     37.1168    
     41.3302    
     36.7238    
     34.8302    
     38.3647    
     37.1509    
     40.0066    
     38.7918    
     38.2556    
     37.7202    
     41.2538    
     48.1844    
     44.9325    
     41.0030    
     43.8586    
     41.9655    
     40.7514    
     36.1455    
     37.6445    
     39.8213    
     39.9636    
     37.3923    
     36.8571    
     36.3212    
     36.4635    
     39.3184    
     36.0692    
     35.5341    
     39.0677    
     36.4961    
     37.3175    
     38.8156    
     36.2457    
     39.7794    
     41.9562    
     36.6727    
     43.5979    
     34.2459    
     35.7434    
     38.5983    
     35.3508    
     36.1704    
     36.3127    
     36.4550    
     35.2421    
     36.0624    
     33.4938    
     37.0242    
     38.5227    
     34.5977    
     36.0959    
     35.5602    
     35.7025    
     33.1343    
     32.5981    
     31.3858    
     29.4963    
     30.9920    
     26.3940    
     29.9232    
     28.7106    
     26.1429    
     21.5473    
     26.4274    
     31.3113    
     30.0987    
     25.5016    
     35.8034    
     27.1389    
     29.9912    
     34.1978    
     29.5984    
     25.6774    
     27.1739    
     24.6087    
     31.5215    
     26.9244    
     30.4521    
     26.5310    
     29.3820    
     30.8789    
     29.6665    
     27.7780    
     26.5661    
     25.3536    
     32.2676    
     29.0235    
     27.1352    
     26.6005    
     28.0960    
     22.1479    
     22.2902    
     19.7269    
     15.8117    
     20.6871    
     18.8007    
     23.0015    
     25.1732    
     21.9319    
     24.1049    
     22.8938    
     22.3587    
     21.8251    
     18.5852    
     15.3472    
     15.4894    
     18.3364    
     21.1834    
     16.5931    
     14.7071    
     11.4706    
     14.3147    
     14.4570    
     13.2490    
     16.7696    
     14.8837    
     15.7028    
     20.5766    
     20.7188    
     20.8611    
     22.3569    
     23.1747    
     21.9649    
     20.7545    
     18.8689    
     17.6589    
     14.4214    
     13.8886    
      9.3013    
     11.4710    
     13.6395    
      7.7017    
      8.5201    
      7.3116    
      9.4800    
      6.2455    
     14.4928    
     12.6087    
     18.8317    
     14.2429    
     16.4124    
     13.8524    
     13.3198    
     14.1369    
     12.2531    
      9.6927    
      6.4603    
      8.6281    
     12.8219    
      7.5621    
      7.0291    
     11.2221    
     13.3907    
     14.2077    
     12.9988    
     11.7909    
      9.9079    
      8.0245    
     12.2175    
      7.6330    
      8.4511    
      7.9174    
      8.7355    
      9.5529    
      6.3197    
      1.0644    
      3.9054    
      0.0005    
      8.9127    
      7.7048    
      4.4741    
