  11100 11  1   BR256    PO     BMW  .000 U S1 042793 00.01   1        
  PROGRAM LAMBDA-9   VERSION 02.31                                     
  USER BMW DATE & TIME  1993 04 27 04.01 00.00    4.9200    295K S     
 AU1 HO  44     0     0 YLF              .620000 -  .670000 .00010     
 FILE NAME                                ON PC = BR256.SP             
 NO_POINTS  =   501.    pts   DATA_INTV =  .000100 æm                  
 MIN_LAMBDA =   .620000 æm     MIN_DATA =    .72010                    
 MAX_LAMBDA =   .670000 æm     MAX_DATA =    .92870                    
 SCANSPEED  = 15.000000 NM/MIN SLITWIDTH=   .20000 NM                  
  RESP TIME =   .5      sec SENSITIVITY = 5          DATE=93/04/27     
 OSU SAMPLE--CONC CORRECTED .44%                                       
  This spectra is part of Database LASERS
 Database LASERS was created by Pat Cross working 
 at NASA Langley Research Center, Internal Operations Group,
 Aerospace Electronics Systems Division, Remote Sensing 
 Technology Branch. phone:(757)864-1633   fax:(757)864-7894 
     e-mail p.l.cross@larc.nasa.gov 
     homepage http://aesd.larc.nasa.gov/laser/dbmain.htm
  EOH     (1X,F11.4)                                                   
   501.         
    166.6795    
    242.1647    
      0.0000    
    227.1141    
      0.0000    
     46.3280    
    398.6339    
    333.0306    
    353.2391    
    449.2547    
    272.6124    
    141.8337    
    510.0592    
    262.6114    
     26.5054    
    192.1989    
    277.7997    
    318.1517    
    464.6553    
    398.9615    
    152.1075    
    338.4289    
    545.7720    
    424.3260    
    535.6859    
    429.4318    
    207.5648    
    444.6492    
    172.4122    
     51.9461    
    480.1351    
    338.6793    
    167.4846    
    253.0416    
    258.1005    
    581.5858    
    601.9026    
    708.6041    
    460.0963    
    233.0519    
    217.9789    
    248.2046    
    182.8183    
    238.1862    
    465.3051    
    182.8929    
    238.2607    
    546.3958    
    480.5833    
    142.7837    
    253.4644    
    384.6073    
    369.4816    
    183.0912    
    430.1537    
    203.2580    
    208.3111    
    233.4983    
    163.1062    
    541.6243    
    138.0314    
    344.4703    
    268.8704    
    440.4859    
    405.1307    
    349.6127    
    415.2874    
    425.4187    
     98.0593    
    486.1635    
    541.8951    
    253.9823    
    811.2949    
    248.9950    
    420.5384    
    365.0021    
    587.6691    
    314.5969    
    623.2378    
    674.0548    
    602.9890    
    279.4114    
    173.7473    
    410.6500    
    350.0783    
    826.9058    
    461.2793    
    522.0458    
    694.6066    
    577.8444    
    436.0933    
    730.2815    
    234.3562    
    598.2314    
    481.7125    
    710.0310    
    214.3229    
    174.1125    
    486.8714    
    446.4231    
    451.5052    
   1016.3315    
    300.0813    
    335.4043    
    441.4868    
    583.3050    
    689.9587    
    325.4142    
    771.4129    
    431.4976    
    624.0154    
    487.1859    
    492.2723    
    761.3511    
    659.6589    
    487.2822    
    634.3152    
    598.8117    
    467.1137    
    532.9503    
    894.0848    
    462.1262    
    981.0151    
    725.9661    
    260.3022    
    436.9387    
    528.0545    
    614.2740    
    594.0016    
    487.6183    
    462.3419    
    502.8517    
    930.1278    
   1001.7457    
    644.9011    
    650.0046    
    604.3414    
    568.8611    
    879.2007    
    935.4028    
    976.3293    
   1001.9364    
   1027.5547    
    731.5323    
    777.3690    
   1022.5078    
    930.4613    
    935.5931    
    752.0048    
    879.4623    
    910.1207    
   1027.7683    
    691.0595    
    625.0432    
   1222.8380    
   1192.0189    
   1130.4158    
   1269.2117    
    946.0774    
   1325.9164    
   1089.4713    
   1233.2878    
   1012.6694    
   1233.3351    
   1408.5704    
   1331.2128    
   1331.2363    
   1351.8824    
   1362.2191    
   1475.8551    
   1382.9025    
   1828.8439    
   1563.9078    
   1631.3275    
   1787.2539    
   1657.3197    
   2079.7314    
   2247.6936    
   2216.1829    
   2268.7761    
   2490.2500    
   2840.4290    
   2989.8079    
   3086.1016    
   3403.0925    
   3630.0847    
   4356.2925    
   5032.6294    
   5138.8784    
   6203.3423    
   7646.1255    
   8904.0947    
  10166.0654    
  11412.1621    
  11437.8379    
  10284.8584    
   9123.3408    
   7859.5176    
   6913.4829    
   6163.4985    
   5753.3140    
   5566.5352    
   5589.1611    
   5290.5972    
   4732.4502    
   4301.7358    
   4241.3354    
   3956.7842    
   3934.9893    
   3603.5623    
   3376.7493    
   3274.5195    
   3151.0679    
   3333.7368    
   3452.3298    
   3625.3628    
   4555.5283    
   5257.2407    
   6267.0615    
   7688.1812    
   8965.5303    
  10719.2070    
  11374.3818    
  11329.5811    
  10776.1543    
  10091.9990    
   9191.1973    
   7777.1709    
   6549.1909    
   5128.6313    
   4379.3281    
   3226.6248    
   3199.8037    
   2380.6184    
   2322.6782    
   2312.1716    
   1695.0852    
   1778.3007    
   1436.1073    
   1757.5333    
   1783.5746    
   1632.9006    
   1690.0266    
   1887.8575    
   2055.1160    
   1966.2200    
   2291.3677    
   2228.2832    
   1841.0466    
   1992.4473    
   2018.6179    
   2018.6406    
   2613.6331    
   2852.7385    
   2687.9272    
   2788.9089    
   2863.4629    
   2375.8914    
   2186.5093    
   2439.2456    
   2534.3931    
   2592.6443    
   2381.2776    
   2244.4138    
   2555.6492    
   1992.8096    
   2376.0947    
   2402.4863    
   2386.6870    
   3157.7271    
   3686.2383    
   3849.2603    
   3313.5552    
   3072.1064    
   2842.5618    
   2371.0278    
   2019.2051    
   1732.3927    
   1328.6560    
   1540.4709    
   1462.8955    
   1581.9551    
   1297.8342    
   1076.9200    
   1261.8406    
   1035.9760    
    969.4713    
   1036.0208    
    801.0650    
   1148.8708    
   1442.4484    
    984.9266    
    852.1344    
   1195.1887    
   1092.5453    
   1138.7397    
   1087.4618    
   1287.8710    
   1308.4919    
   1082.4042    
   1072.1731    
   1391.0580    
   1303.4319    
   1618.7350    
   1453.0959    
   1608.4064    
   1422.1427    
   1707.0729    
   2009.4587    
   1701.9205    
   1952.0059    
   2061.8567    
   2303.3730    
   2816.8103    
   2414.0854    
   2758.3442    
   2726.4839    
   2488.0784    
   2689.3589    
   2641.6340    
   2525.1553    
   2445.9106    
   2472.3376    
   2366.8237    
   2119.7778    
   2356.3254    
   1900.1516    
   2193.3000    
   2546.4893    
   2409.1423    
   2125.1538    
   2245.9280    
   1931.6001    
   1978.6370    
   2267.0271    
   2451.4961    
   2282.8513    
   2351.3218    
   2870.6147    
   3250.5276    
   3052.1887    
   3309.7080    
   3829.0681    
   4315.8320    
   4359.8589    
   4260.9297    
   3315.1948    
   3266.8225    
   3234.6096    
   2854.8726    
   2568.1411    
   2828.2920    
   2356.9163    
   2057.5415    
   2451.9109    
   1853.8473    
   2473.0815    
   2246.4956    
   2241.2627    
   2420.3486    
   3084.7319    
   3471.8083    
   3954.7981    
   3856.7358    
   3661.2053    
   3758.8997    
   3542.1506    
   3818.7305    
   3434.1873    
   3862.3071    
   4184.6572    
   4129.8892    
   4514.8125    
   4343.9824    
   4830.6631    
   4542.4946    
   4531.4658    
   5042.4741    
   4658.7275    
   5305.7617    
   4925.3994    
   5587.5083    
   5547.9878    
   5514.1406    
   5154.4585    
   4531.6597    
   4004.4392    
   3106.7327    
   2531.9207    
   2600.7595    
   1792.0962    
   1599.9135    
   1615.4886    
   1233.3593    
   1243.6663    
    941.1796    
   1166.6119    
   1028.1846    
    671.1799    
    772.9287    
    895.3164    
    483.6419    
    900.4656    
    493.8045    
    803.5958    
    564.7581    
    226.4010    
    498.9520    
    438.2710    
    251.6297    
    296.9873    
    488.9129    
    569.9771    
    635.9482    
    196.3869    
    276.9388    
    661.4039    
     40.8243    
    266.9268    
    377.8818    
    560.0070    
    191.5089    
    388.0450    
     20.9081    
    322.4873    
    241.9017    
    246.9575    
    141.3791    
    438.6945    
    257.0889    
    388.2138    
    166.5848    
    171.6324    
      0.0000    
     51.2065    
    191.8041    
    378.2404    
    287.4779    
    363.1399    
    530.0079    
    136.6324    
    267.4116    
    358.1765    
    267.4536    
    176.9086    
    469.3915    
     86.5647    
    176.9714    
    182.0199    
    373.4669    
    232.3591    
    368.4602    
     16.5072    
     71.6609    
    116.8409    
    217.3688    
    292.9153    
    242.5730    
     11.6257    
     66.7734    
    162.1662    
     81.8605    
    192.3689    
    106.9879    
    505.2104    
    288.0629    
    434.4341    
    267.9542    
    257.9047    
    343.6038    
      0.0000    
      0.0000    
      0.0000    
    464.9187    
    157.4344    
      0.0000    
    227.8696    
    328.6385    
    177.6161    
    237.9954    
    647.5071    
    253.1379    
    147.5505    
    222.9816    
    212.9418    
    243.1534    
    268.3472    
    399.5002    
    434.8890    
      0.0000    
    273.4670    
    233.2090    
    293.6606    
    233.2501    
    576.7598    
    208.1372    
    152.8629    
    354.2733    
    551.4971    
      0.0000    
    152.9449    
