  11100 11  1   BR254    PO     BMW  .000 U SI 042793 00.01   1        
  PROGRAM LAMBDA-9   VERSION 02.31                                     
  USER BMW DATE & TIME  1993 04 27 09.00 00.00    4.9200    295K S     
 AU1 HO  44     0     0 YLF             1.125000 - 1.225000 .00020     
 FILE NAME                                ON PC = BR254.SP             
 NO_POINTS  =   501.    pts   DATA_INTV =  .000200 æm                  
 MIN_LAMBDA =  1.125000 æm     MIN_DATA =    .81920                    
 MAX_LAMBDA =  1.225000 æm     MAX_DATA =    .94260                    
 SCANSPEED  = 15.000000 NM/MIN SLITWIDTH=   .00000 æm                  
  RESP TIME =   .5      sec SENSITIVITY = 5          DATE=93/04/27     
 OSU SAMPLE--CONC CORRECTED .44%                                       
  This spectra is part of Database LASERS
 Database LASERS was created by Pat Cross working 
 at NASA Langley Research Center, Internal Operations Group,
 Aerospace Electronics Systems Division, Remote Sensing 
 Technology Branch. phone:(757)864-1633   fax:(757)864-7894 
     e-mail p.l.cross@larc.nasa.gov 
     homepage http://aesd.larc.nasa.gov/laser/dbmain.htm
  EOH     (1X,F11.4)                                                   
   501.         
    193.1116    
     99.3411    
     69.7802    
    391.2209    
    143.7868    
    148.7353    
    460.7883    
    163.5753    
    292.1535    
    133.9878    
    138.9382    
    351.6560    
    391.3523    
    163.6628    
    287.2889    
    188.3890    
    183.4626    
    565.4307    
    203.2561    
     45.3944    
    500.7681    
      0.0000    
    173.6724    
    183.5645    
    183.5791    
    376.6549    
    381.6312    
     60.2885    
    183.6373    
    183.6519    
    188.6075    
    342.0308    
      0.0000    
      0.0000    
    307.3890    
     50.5535    
    282.6605    
    159.0767    
     50.5971    
    347.1050    
    511.0067    
    401.6985    
    550.8542    
    426.5520    
    164.1138    
    367.0265    
    526.0209    
    615.7029    
    785.5669    
    223.4796    
    352.2231    
    755.5898    
    590.8491    
    910.9272    
    690.6609    
    466.4686    
    775.6727    
    755.6766    
    805.7354    
    941.1328    
    695.7432    
    690.7621    
    860.8991    
   1112.2426    
   1082.0236    
   1370.0383    
   1056.8765    
   1354.8649    
   1466.4832    
   1329.5687    
   1654.8198    
   1552.9497    
   1405.6318    
   1828.5796    
   1884.9374    
   2023.5421    
   2327.8516    
   2618.5581    
   2754.1577    
   3432.8479    
   3896.2649    
   4180.8818    
   4364.3955    
   4277.9673    
   4089.4448    
   3987.4353    
   3955.2756    
   3544.3943    
   3210.9155    
   2895.5430    
   2749.1106    
   2660.4343    
   2749.1394    
   2488.7900    
   2044.3832    
   1916.0034    
   1639.8981    
   1553.3242    
   1319.8580    
   1183.3782    
    901.5679    
   1027.1835    
   1132.9672    
   1289.5636    
   1112.8333    
    956.8624    
    941.8100    
   1102.7953    
   1168.3635    
   1213.8182    
   1158.3021    
   1289.6783    
   1462.0367    
   1325.1373    
   1665.6521    
   1650.3667    
   1446.8617    
   1416.4264    
   1518.0198    
   1778.0801    
   1962.5414    
   2008.7843    
   2106.5391    
   2375.1233    
   2985.1860    
   3725.9226    
   4235.4224    
   4435.3955    
   5035.0547    
   5326.7896    
   5614.8242    
   5737.2324    
   5343.3994    
   5084.5322    
   5354.4785    
   5431.9058    
   6117.6880    
   6297.7939    
   6235.8223    
   5893.5977    
   5326.9468    
   4630.9868    
   4500.6494    
   3832.9753    
   3301.4700    
   3143.2163    
   2807.3904    
   3074.8274    
   3180.1401    
   2802.2041    
   2749.9697    
   2385.8826    
   2282.3945    
   2479.2629    
   2313.4487    
   2040.1124    
   2024.7028    
   1922.0170    
   1881.0151    
   2158.5930    
   1483.0409    
   1442.4268    
   1406.9213    
   1048.1978    
   1315.7379    
   1539.0336    
   1478.0449    
   1396.8501    
   1753.2184    
   1876.0493    
   2225.8220    
   2547.0593    
   2599.0928    
   2896.7437    
   2495.1382    
   2526.3242    
   2672.0754    
   2267.2449    
   2066.1563    
   1963.3822    
   1544.3345    
   1860.8505    
   1994.2366    
   1753.4313    
   1529.1321    
   1230.0575    
   1008.2764    
   1386.9939    
   1048.5526    
    802.6027    
    968.1234    
    752.5952    
    672.6623    
    922.9675    
    867.8009    
    697.6741    
    782.6804    
    374.1636    
    568.0284    
    812.7567    
    463.5747    
    364.2993    
    374.2343    
    329.6273    
    578.0749    
    389.1590    
    131.8800    
    538.2803    
      0.0000    
    428.9270    
    717.8707    
    349.5663    
    503.5198    
    543.3409    
    245.6195    
    568.2685    
    742.9460    
    404.2154    
    558.3483    
    453.9029    
    310.0499    
    643.1288    
    733.0333    
    493.7263    
    723.0634    
    349.7637    
    513.6650    
    768.1083    
    379.5593    
    593.3756    
    648.2428    
    290.3958    
    673.2268    
    598.4166    
    473.9934    
    538.6749    
    389.5959    
    459.1261    
    643.3681    
    548.6865    
    493.9655    
    543.7352    
     97.8610    
    558.7001    
    668.4026    
    389.7224    
    653.4584    
    449.3305    
    300.5397    
    518.9645    
    499.0800    
    340.2166    
    598.6835    
    489.1746    
    275.8686    
    713.5061    
    464.3631    
    593.7689    
    524.0645    
    399.8420    
    424.6778    
    663.6518    
    494.2742    
    693.6358    
    618.7932    
    554.0311    
    539.1099    
    514.2407    
    598.9078    
    663.7638    
    246.4063    
    549.1352    
    544.1698    
    529.2518    
    773.7685    
    628.9226    
    236.5999    
    643.9149    
    848.9325    
    713.8421    
    529.3496    
    803.8967    
    693.9016    
    728.8898    
   1125.4612    
    768.9215    
    969.4730    
    793.9672    
    819.0154    
    909.2612    
    954.4557    
    964.5179    
    959.5074    
    789.0481    
   1024.8855    
    859.1951    
    989.7115    
    829.1567    
    704.1135    
    644.2219    
    869.2892    
    789.1596    
    724.1560    
    724.1699    
    729.1826    
    579.4915    
    599.4382    
    729.2244    
    400.5264    
    719.2582    
    869.4284    
    744.2767    
    839.3865    
    994.9759    
   1161.1819    
   1020.1470    
   1252.1123    
   1378.6771    
   1612.4542    
   1770.6763    
   1796.2563    
   2150.5615    
   2063.0347    
   2032.1891    
   2289.9834    
   2352.0767    
   2481.6951    
   2476.5168    
   2564.8623    
   2930.3738    
   3024.8425    
   3156.3650    
   3172.1846    
   3357.0071    
   3563.8225    
   3547.8962    
   3558.5352    
   3996.3557    
   3505.4553    
   3320.0701    
   3372.9788    
   3277.8242    
   3051.2820    
   2983.0183    
   2497.5212    
   2398.9714    
   2492.3582    
   2476.7942    
   2388.6479    
   2295.4983    
   2316.1992    
   2658.8909    
   2393.8855    
   2120.0903    
   2476.8911    
   1924.7939    
   1955.5953    
   2207.7939    
   1965.8881    
   1940.2390    
   2202.6741    
   1618.1460    
   1883.8746    
   2171.7661    
   1945.4402    
   1750.8691    
   1832.7124    
   1516.4373    
   1699.8403    
   1582.6036    
   1192.2379    
   1374.3557    
    960.6176    
    965.6556    
   1025.9952    
   1051.1658    
    870.3429    
    990.8348    
    805.2431    
    755.2211    
    955.7041    
    815.2969    
    830.3350    
    560.6478    
    451.2358    
    850.4173    
    715.3267    
    625.4890    
    710.3571    
    426.4696    
    366.9353    
    441.3954    
    481.1635    
    396.7426    
    570.7618    
    149.3214    
    238.2642    
    625.6266    
    401.7718    
    466.3487    
    248.2095    
      0.0000    
    263.0779    
    248.2508    
    263.1054    
    352.2674    
      6.5572    
     65.6528    
    362.2263    
    466.4862    
    282.9840    
     70.6356    
      0.0000    
    223.6621    
    297.8910    
    228.6343    
    248.4294    
     70.7180    
     16.5628    
    451.7172    
    436.8265    
    283.1350    
    377.2960    
    134.8988    
    243.5923    
    621.0239    
    357.5143    
    581.1769    
    446.8720    
    194.2301    
    536.4028    
    362.5419    
    506.5774    
    536.4438    
    417.1592    
     56.1857    
    546.4391    
    446.9953    
    422.1765    
    447.0227    
    130.2000    
    293.3089    
    387.4901    
    342.8760    
    323.0681    
    194.4492    
     21.8691    
    238.9639    
    219.2005    
    169.8069    
    333.0584    
    100.7562    
      0.0000    
    392.6028    
    258.8423    
    357.9113    
     31.8497    
      0.0000    
     90.9933    
    115.6589    
    209.4776    
    417.5285    
    140.3679    
      0.0000    
     86.1452    
    224.3740    
      0.0000    
    174.9917    
    179.9448    
      0.0000    
    120.7422    
    199.7460    
    264.0365    
    189.8906    
      0.0000    
    318.5367    
    130.6918    
    303.7056    
    353.2666    
    160.3431    
    199.8687    
    437.6606    
    323.5869    
    180.1493    
    343.4358    
    175.2371    
    284.0235    
    224.6740    
    284.0508    
    348.4584    
     61.8635    
    116.0952    
    353.4573    
    323.7367    
    343.5720    
    214.8979    
     81.6519    
    185.2799    
    328.7600    
    368.4268    
      0.0000    
