  11100 11  1   BR257    PO     BMW  .000 U S1 042793 00.01   1        
  PROGRAM LAMBDA-9   VERSION 02.31                                     
  USER BMW DATE & TIME  1993 04 27 04.02 00.00    4.9200    295K P     
 AU1 HO  44     0     0 YLF              .520000 -  .570000 .00010     
 FILE NAME                                ON PC = BR257.SP             
 NO_POINTS  =   501.    pts   DATA_INTV =  .000100 æm                  
 MIN_LAMBDA =   .520000 æm     MIN_DATA =    .15430                    
 MAX_LAMBDA =   .570000 æm     MAX_DATA =    .91790                    
 SCANSPEED  = 15.000000 NM/MIN SLITWIDTH=   .20000 NM                  
  RESP TIME =   .5      sec SENSITIVITY = 5          DATE=93/04/27     
 OSU SAMPLE--CONC CORRECTED .44%                                       
  This spectra is part of Database LASERS
 Database LASERS was created by Pat Cross working 
 at NASA Langley Research Center, Internal Operations Group,
 Aerospace Electronics Systems Division, Remote Sensing 
 Technology Branch. phone:(757)864-1633   fax:(757)864-7894 
     e-mail p.l.cross@larc.nasa.gov 
     homepage http://aesd.larc.nasa.gov/laser/dbmain.htm
  EOH     (1X,F11.4)                                                   
   501.         
    127.9968    
    266.6149    
    364.6683    
     74.6130    
    422.7693    
    244.5645    
    306.7571    
    185.0740    
    129.8830    
    105.2934    
    238.7167    
    439.1296    
    296.6554    
    302.6406    
    303.5130    
    253.2895    
    315.4819    
     10.5709    
    189.5706    
    323.2135    
    344.5462    
    273.8483    
    551.3915    
    459.8559    
    450.4703    
    333.5622    
    135.3979    
    309.7403    
    203.3936    
    480.4771    
    522.4080    
    277.4616    
    206.8821    
    345.6519    
    310.7330    
    316.7172    
    292.0371    
    333.7982    
    247.8264    
    489.1978    
    122.1537    
    265.7555    
    697.4851    
    451.6603    
    380.8271    
    520.0864    
    433.7770    
    805.0231    
    312.7206    
    677.8279    
    498.7885    
    643.5331    
    830.0461    
    655.5691    
    718.2532    
    713.9699    
   1014.7347    
    664.2045    
    793.9575    
    903.3676    
   1007.8490    
    822.3930    
    880.1185    
    772.5122    
    850.8397    
    970.7350    
    821.5848    
   1128.1881    
   1181.0787    
   1046.8195    
   1063.2622    
   1058.9415    
   1179.3590    
   1029.5505    
   1061.5557    
   1171.5669    
   1292.2644    
   1048.6001    
   1221.0315    
   1014.0332    
   1238.4015    
   1343.5962    
   1167.2590    
   1324.4551    
   1435.0681    
   1242.7574    
   1457.7437    
   1265.3456    
   1501.3809    
   1361.0093    
   1288.8142    
   1014.1195    
   1222.8134    
   1036.6022    
   1496.1283    
   1116.2035    
   1231.5027    
   1175.1226    
   1254.0811    
   1145.6676    
   1412.3950    
   1387.1326    
   1367.1080    
   1310.5692    
   1405.4221    
   1694.6610    
   1790.2988    
   1738.4979    
   1497.8470    
   1719.1869    
   1515.3010    
   1747.2462    
   1827.1576    
   2257.1960    
   1902.7915    
   2280.2349    
   2227.8816    
   2159.6497    
   2266.8733    
   2529.3428    
   2674.9976    
   2643.6528    
   2800.4290    
   3120.1211    
   3050.5518    
   3116.4392    
   3564.0491    
   3422.8010    
   3554.8435    
   3797.1614    
   3952.3440    
   4396.9585    
   4722.2319    
   4622.1816    
   5356.9272    
   5477.4478    
   6150.6782    
   6622.8257    
   7271.4995    
   8608.0986    
  10003.3418    
  11708.8730    
  13772.3320    
  16363.3896    
  19717.6504    
  23696.9785    
  28481.2324    
  35557.5430    
  46352.8125    
  59170.7656    
  68496.0859    
  74773.7813    
  81742.3047    
  82071.3203    
  64463.4648    
  44609.9102    
  33094.8789    
  27213.4766    
  22431.4219    
  17710.4063    
  14000.0918    
  11401.0098    
   9815.3193    
   9460.5400    
   9842.1201    
  12017.8906    
  14996.5234    
  20245.0723    
  30318.8750    
  42591.8438    
  52827.3750    
  50549.4805    
  39136.5859    
  29395.4512    
  22717.7715    
  18473.5059    
  16348.7959    
  15470.8477    
  17084.8809    
  21311.4531    
  24452.3418    
  20945.2422    
  14821.6504    
  10553.2002    
   8209.7852    
   6746.5210    
   6003.5356    
   5545.5039    
   5358.3965    
   5416.1470    
   5326.0410    
   5950.2705    
   6101.0791    
   6794.5029    
   6918.6719    
   7762.0396    
   9801.0586    
  12554.3184    
  12714.8691    
   9822.4414    
   7408.5259    
   6028.1035    
   5764.4834    
   5622.2407    
   6517.6367    
   7377.2349    
   9828.5254    
  12291.4980    
  12790.2549    
  11722.3281    
  10627.5928    
   9576.9170    
   8288.5752    
   7425.7617    
   6212.7148    
   5319.3726    
   4560.1377    
   4427.1777    
   3748.1868    
   3475.5256    
   3356.5520    
   3712.4014    
   4991.7227    
   5805.6699    
   5486.4243    
   5073.3013    
   4318.2095    
   4158.2915    
   4275.5376    
   4482.1665    
   5349.4404    
   6146.5229    
   6460.4521    
   6940.8027    
   7224.6724    
   7665.2559    
   8176.4224    
   7571.5620    
   6308.8662    
   5158.9131    
   4297.0576    
   3581.9866    
   3391.9839    
   2755.0925    
   2312.5835    
   2239.0835    
   1996.4374    
   2028.9948    
   1966.5034    
   1898.8324    
   1978.7954    
   2185.9441    
   2388.6926    
   2426.8459    
   2465.0325    
   2269.0022    
   2285.8032    
   1895.2437    
   1822.4264    
   2028.8486    
   2056.1338    
   1840.8125    
   2110.7527    
   1974.2520    
   1591.5925    
   1477.4985    
   1520.1383    
   1177.5177    
   1230.2646    
   1023.9653    
    870.0621    
    819.4556    
   1171.4896    
   1094.6639    
   1219.9023    
   1003.3401    
   1050.7158    
   1206.9415    
   1431.4070    
   1547.0938    
   1946.8190    
   1753.0752    
   1565.3756    
   1482.6838    
   1629.8823    
   1468.7688    
   1962.5664    
   1879.1600    
   2138.6082    
   2314.4424    
   3086.6506    
   2759.1960    
   2530.0178    
   2005.5582    
   1822.1256    
   1613.2595    
   1374.1058    
   1125.8373    
   1443.5454    
   1319.4957    
   1560.0863    
   1316.0320    
   1645.4971    
   1730.1892    
   1500.9010    
   1800.1471    
   1149.1776    
    938.2287    
   1145.7334    
   1182.8572    
    571.1970    
    531.1750    
    486.0875    
    630.0793    
    712.9333    
    606.2217    
    433.4492    
    633.5478    
    353.6937    
    502.3644    
    718.1357    
    407.2104    
    448.8462    
    500.7301    
    358.8957    
    660.9669    
    682.3259    
    346.2339    
    760.9856    
    393.7735    
    552.7582    
    329.3582    
     51.4168    
    402.3308    
    668.7686    
    353.1686    
    196.6128    
    217.7625    
    310.0114    
    366.8120    
    520.5684    
    470.4156    
    655.2192    
    299.0992    
    274.5740    
    204.4128    
    164.7402    
    256.8685    
    328.8410    
    283.9853    
     26.6016    
    326.3570    
    266.2773    
    516.5223    
    318.7941    
    299.3397    
    345.9413    
    179.3376    
    357.8420    
    318.0442    
    106.0138    
    289.3038    
    305.4041    
    601.7971    
    261.4496    
    690.5080    
      0.0000    
    656.4058    
    280.1385    
    448.8067    
    490.4416    
    338.6033    
    461.5932    
    107.1594    
    544.9230    
    545.7891    
    297.2186    
    460.8278    
    309.1071    
    157.8857    
    244.8716    
      0.0000    
    531.4382    
    277.9055    
    212.8546    
    163.0814    
    361.7568    
    393.1293    
    521.3275    
    323.7082    
    400.8143    
    452.5759    
    377.1205    
    638.0005    
    333.1167    
    303.5194    
    533.3552    
    274.8048    
    642.3292    
    474.7841    
    409.4715    
    532.5821    
    147.4428    
     97.7549    
    468.9233    
    587.0782    
    338.4247    
    344.3698    
     41.4961    
    376.5840    
    570.9861    
    694.5022    
    409.6867    
    344.4831    
     51.7327    
    371.6143    
    250.6913    
    216.0954    
    572.8050    
    354.7548    
    625.5945    
    458.1762    
    372.5897    
    363.2961    
     30.1190    
    583.9661    
    188.4486    
     98.3217    
    225.6131    
    460.0102    
    562.7792    
    471.9195    
    559.4080    
    478.7415    
    433.8058    
    705.0359    
    496.6127    
    436.4009    
    315.3570    
    816.0596    
    423.7400    
    521.3145    
    619.0918    
    365.3617    
    224.2614    
    113.8920    
    271.5760    
    242.0479    
      0.0000    
    208.3434    
    442.5606    
    286.0344    
    439.2039    
    506.2219    
    379.9506    
      0.0000    
      0.0000    
    601.4360    
    363.0995    
    358.8904    
    212.7945    
    284.5468    
    234.7666    
    362.3488    
    556.4911    
    212.0572    
    665.3798    
    712.2479    
    442.8697    
    453.9020    
      0.0000    
    262.7989    
    157.4394    
    259.4632    
     33.0318    
    306.7837    
    140.6945    
    308.5124    
    532.9283    
    508.3333    
    555.0338    
    479.5317    
    485.4839    
    481.2602    
    477.0370    
    259.7071    
    422.8498    
    372.9412    
    282.5536    
    384.8214    
    279.2197    
    411.9330    
    104.0454    
    494.9894    
    292.8037    
    420.4688    
    594.3443    
    590.1096    
    616.4664    
    545.9812    
    506.1258    
