  11100 11  1   BR255    PO     BMW  .000 U S1 042793 00.01   1        
  PROGRAM LAMBDA-9   VERSION 02.31                                     
  USER BMW DATE & TIME  1993 04 27 09.00 00.00    4.9200    295K P     
 AU1 HO  44     0     0 YLF              .620000 -  .670000 .00010     
 FILE NAME                                ON PC = BR255.SP             
 NO_POINTS  =   501.    pts   DATA_INTV =  .000100 æm                  
 MIN_LAMBDA =   .620000 æm     MIN_DATA =    .13420                    
 MAX_LAMBDA =   .670000 æm     MAX_DATA =    .91900                    
 SCANSPEED  = 15.000000 NM/MIN SLITWIDTH=   .20000 NM                  
  RESP TIME =   .5      sec SENSITIVITY = 5          DATE=93/04/27     
 OSU SAMPLE--CONC CORRECTED .44%                                       
  This spectra is part of Database LASERS
 Database LASERS was created by Pat Cross working 
 at NASA Langley Research Center, Internal Operations Group,
 Aerospace Electronics Systems Division, Remote Sensing 
 Technology Branch. phone:(757)864-1633   fax:(757)864-7894 
     e-mail p.l.cross@larc.nasa.gov 
     homepage http://aesd.larc.nasa.gov/laser/dbmain.htm
  EOH     (1X,F11.4)                                                   
   501.         
    646.5229    
    372.0773    
    265.7897    
    575.2227    
    565.0460    
    387.2939    
    534.5322    
    443.0929    
    514.2020    
    733.2896    
    468.4861    
    488.8026    
    554.8966    
    498.9720    
    468.4987    
    139.6118    
    963.7061    
    504.0670    
    702.6866    
    595.6365    
    473.5936    
    590.5504    
    677.1865    
    789.5461    
    891.9276    
    570.2018    
    697.6075    
    902.1891    
    789.5619    
    610.9457    
    907.3255    
    938.0960    
    570.2238    
    616.0530    
    718.0501    
    764.0232    
   1030.5402    
    804.9321    
    840.7540    
    534.6360    
    984.3138    
    743.6073    
    438.1273    
   1020.2845    
    963.7940    
    815.1901    
    794.7328    
   1112.8901    
    943.2803    
   1087.1563    
    784.5170    
   1051.1523    
    845.9180    
    958.6890    
   1076.8787    
    922.7850    
   1030.6028    
   1210.8582    
    953.5720    
   1355.5743    
   1334.8795    
   1324.5341    
   1143.8417    
   1159.3049    
   1521.5333    
   1205.7255    
   1407.3910    
   1474.8101    
   1438.4996    
   1907.5837    
   1480.0103    
   1174.7950    
   1635.9865    
   1542.3431    
   1782.0455    
   1839.5525    
   1667.2587    
   1886.6588    
   1568.3538    
   1247.0618    
   1563.1592    
   1298.7411    
   1143.9039    
   1583.9720    
   1417.8112    
   1589.1815    
   1609.9999    
   1474.8723    
   1604.8007    
   1480.0693    
   1454.1271    
   1672.5146    
   1272.9315    
   1610.0216    
   1620.4343    
   1500.8541    
   1386.7600    
   1272.9470    
   1495.6703    
   1355.6987    
   1537.2322    
   1620.4561    
   1283.2964    
   1500.8789    
   1495.6888    
   1636.0889    
   1542.4456    
   1610.0649    
   1876.2852    
   1438.6268    
   1714.2887    
   1604.8718    
   1516.4868    
   1965.3806    
   1516.4929    
   1630.9144    
   1981.1273    
   2191.4849    
   1975.8861    
   1960.1534    
   2101.9773    
   1792.6396    
   2312.8870    
   2355.1877    
   1412.7511    
   2038.9072    
   2159.8994    
   2233.7024    
   2402.8354    
   2260.0923    
   2212.6133    
   2434.6245    
   2524.7917    
   2418.7380    
   2482.3479    
   2657.7170    
   2652.3984    
   2919.3555    
   3026.5723    
   3182.4810    
   3042.6819    
   3026.5815    
   3241.7649    
   3026.5876    
   3123.2979    
   3382.1812    
   3593.5967    
   3675.1714    
   3512.1750    
   3866.0710    
   3658.8555    
   4156.6553    
   4096.1987    
   4239.2339    
   4582.1113    
   4698.8276    
   4721.0957    
   4989.1162    
   5236.1724    
   5490.2217    
   5791.2349    
   6025.4497    
   6209.0796    
   7202.9063    
   7403.0879    
   8206.5811    
   8665.1455    
   9608.5342    
  10357.2363    
  11490.6465    
  13010.9160    
  15214.4482    
  17002.4473    
  19848.3398    
  22732.8965    
  26428.9941    
  31867.5977    
  37861.5898    
  45565.9844    
  54375.2148    
  64736.0703    
  74144.3438    
  83762.9219    
  88873.6563    
  86985.1953    
  76849.5234    
  63487.5352    
  51314.5195    
  40757.0313    
  33055.1484    
  27775.6758    
  24084.5645    
  22031.1797    
  20603.8379    
  20142.8750    
  19995.4102    
  20322.0352    
  21427.7676    
  22897.7090    
  23730.3574    
  24544.0645    
  23063.0527    
  20003.1777    
  16210.4229    
  12937.7969    
  10628.6133    
   8495.7949    
   7438.6333    
   6770.3418    
   5620.7588    
   5416.8408    
   5056.5264    
   4978.0835    
   4843.9175    
   4504.6484    
   4255.9546    
   4178.8584    
   4085.4141    
   4416.0806    
   4057.9700    
   4228.4214    
   4749.1372    
   4576.7666    
   4777.0073    
   4871.8687    
   5129.5337    
   5711.7329    
   6117.3711    
   6659.9526    
   7132.6621    
   7356.1094    
   6951.1846    
   7033.0596    
   7250.1426    
   8610.8096    
   9658.2783    
   9590.1807    
   8592.6523    
   6665.7905    
   6060.0601    
   4978.1685    
   4438.2793    
   4311.1855    
   4687.9678    
   4810.5273    
   5062.2388    
   6134.6460    
   7150.3198    
   7309.0322    
   7415.1465    
   6289.9136    
   4994.9995    
   4549.1172    
   4477.0659    
   4047.1021    
   3811.7720    
   3463.7173    
   2984.0173    
   2271.0452    
   2387.3521    
   2387.3550    
   2249.9390    
   2123.4573    
   1876.7573    
   2023.5728    
   1845.3619    
   2445.6350    
   2186.6697    
   1981.5898    
   2435.0437    
   2371.5056    
   2828.8223    
   2941.1887    
   3768.1743    
   4212.0591    
   4300.2510    
   4793.8921    
   4543.6445    
   4394.1431    
   3708.2393    
   3285.3406    
   3344.7498    
   2968.0098    
   2984.0955    
   3043.1182    
   3204.4695    
   3107.5967    
   3323.1565    
   3199.0903    
   3333.9651    
   3021.6655    
   2451.0078    
   2466.9146    
   2525.2798    
   2308.1267    
   2313.4119    
   2493.4468    
   2839.5911    
   2615.6384    
   2567.7900    
   2376.8879    
   2668.8713    
   2626.2888    
   2504.0781    
   2652.9070    
   2647.5857    
   2541.2510    
   2652.9158    
   2759.5142    
   2968.0903    
   3070.0493    
   3334.0308    
   3844.7068    
   4416.3657    
   4682.6167    
   4749.4194    
   5394.5562    
   5298.6230    
   4860.9824    
   4610.3691    
   4394.2681    
   4438.5186    
   4549.3262    
   4289.3628    
   4538.2383    
   4771.7383    
   4168.1860    
   4305.9243    
   3937.7148    
   3556.1318    
   3263.9060    
   3064.7390    
   2780.9348    
   3070.1177    
   2631.7058    
   2514.7893    
   2387.5818    
   2339.9690    
   2239.6133    
   2451.1506    
   2171.0798    
   2097.3840    
   2171.0859    
   2387.6025    
   2292.4263    
   2562.6123    
   2679.6558    
   2382.3208    
   2541.3757    
   2525.4463    
   2255.4829    
   2435.2881    
   1929.4015    
   2002.8357    
   2097.4224    
   2255.4978    
   2504.2354    
   2589.2229    
   2573.2803    
   3296.3694    
   3545.3655    
   3752.0781    
   4460.7798    
   4643.8389    
   4984.1382    
   5434.2661    
   6048.9761    
   6782.4570    
   6706.8438    
   6829.0596    
   7056.8906    
   6823.2373    
   6677.8037    
   5740.6191    
   5502.1890    
   4810.9175    
   4632.7603    
   4317.1069    
   4009.0793    
   3790.3098    
   3431.5874    
   3280.2427    
   3113.2588    
   2914.7397    
   2530.8596    
   2377.1396    
   2139.6169    
   2382.4387    
   2097.5227    
   1903.3121    
   1470.5964    
   1372.1132    
   1496.5565    
   1201.5571    
    969.9850    
    739.5712    
   1011.0755    
    913.5630    
    688.5323    
    882.8185    
    862.3316    
    530.6469    
   1016.2320    
    581.5261    
    760.0331    
    530.6586    
    479.8441    
    668.1548    
    872.6003    
    479.8529    
    617.1948    
    959.7710    
    683.4708    
    800.9576    
    115.6182    
    474.7909    
    703.8931    
    688.5880    
    622.3104    
    607.0322    
    637.6024    
    637.6053    
    749.8654    
    388.5619    
    617.2357    
    571.4126    
    601.9591    
    226.6505    
    469.7529    
    566.3347    
    540.9037    
    607.0673    
    439.3052    
     75.3776    
    530.7434    
    449.4659    
    398.7406    
    439.3198    
    561.2748    
    408.8893    
    617.2824    
    479.9464    
    495.1884    
    383.5507    
    221.6483    
    525.6934    
    171.1754    
    419.0548    
    693.7786    
    709.0943    
    688.6843    
    586.7577    
    211.5726    
    297.4977    
    226.7292    
    368.3834    
    520.6407    
    327.8722    
    343.0671    
    241.8995    
    287.4025    
      0.0000    
    322.8269    
    292.4672    
    505.4166    
    312.7115    
    505.4224    
    419.1130    
    267.1982    
    348.1611    
    130.9007    
    368.4298    
    226.7815    
    429.2778    
    403.9193    
    505.4485    
    607.1982    
    627.5780    
    282.3962    
    642.8716    
    571.5726    
    515.6293    
    571.5784    
    419.1594    
    520.7220    
    287.4750    
    373.5412    
    556.3286    
    591.9570    
    307.7228    
    120.8796    
    176.3523    
     75.5490    
    607.2474    
    770.5147    
    419.1941    
    485.1862    
    525.8442    
    556.3605    
    591.9888    
    327.9968    
