  11100 11  1   BR260    PO     BMW  .000 U S1 042793 00.01   1        
  PROGRAM LAMBDA-9   VERSION 02.31                                     
  USER BMW DATE & TIME  1993 04 27 04.05 00.00    4.9200    295K S     
 AU1 HO  44     0     0 YLF              .435000 -  .495000 .00010     
 FILE NAME                                ON PC = BR260.SP             
 NO_POINTS  =   601.    pts   DATA_INTV =  .000100 æm                  
 MIN_LAMBDA =   .435000 æm     MIN_DATA =    .37320                    
 MAX_LAMBDA =   .495000 æm     MAX_DATA =    .91400                    
 SCANSPEED  = 15.000000 NM/MIN SLITWIDTH=   .20000 NM                  
  RESP TIME =   .5      sec SENSITIVITY = 5          DATE=93/04/27     
 OSU SAMPLE--CONC CORRECTED .44%                                       
  This spectra is part of Database LASERS
 Database LASERS was created by Pat Cross working 
 at NASA Langley Research Center, Internal Operations Group,
 Aerospace Electronics Systems Division, Remote Sensing 
 Technology Branch. phone:(757)864-1633   fax:(757)864-7894 
     e-mail p.l.cross@larc.nasa.gov 
     homepage http://aesd.larc.nasa.gov/laser/dbmain.htm
  EOH     (1X,F11.4)                                                   
   601.         
    238.8642    
    228.7266    
     14.8700    
     25.1063    
    387.4834    
    188.1924    
    183.1637    
      0.0000    
    264.9878    
    270.1709    
    352.0729    
      0.0000    
    168.3012    
     97.0481    
    188.8454    
    285.9373    
    204.2946    
      0.7128    
    138.1542    
    214.7190    
    230.1042    
    301.7068    
    133.3464    
    163.9986    
    174.2664    
    296.8803    
    460.8500    
    343.0629    
     87.9488    
     88.0204    
    128.8278    
    200.2720    
    292.2711    
    394.6980    
    456.2935    
    343.6345    
    605.4564    
    677.6405    
    354.0834    
    579.9411    
    508.0517    
    760.4761    
    858.7718    
    734.8060    
    952.1608    
    838.2878    
    828.0153    
    673.1938    
   1014.7141    
    885.1511    
   1233.4612    
    750.8571    
    756.0917    
   1186.7394    
    838.9224    
   1103.5653    
   1275.6409    
   1166.1798    
   1119.3856    
   1417.0587    
   1260.2584    
    963.7279    
   1000.1195    
    963.8677    
   1125.0107    
    948.4500    
   1601.2406    
   1177.2977    
    912.3780    
   1396.8091    
   1669.9364    
   1486.0414    
   1318.5497    
   1533.4141    
   1418.1036    
   1876.1395    
   1886.7888    
   2173.4795    
   1449.8210    
   1707.4408    
   2014.2351    
   1924.1885    
   1924.2574    
   1887.2720    
   1987.9873    
   2693.3970    
   2291.3835    
   2264.7727    
   2537.7156    
   2259.5745    
   2430.6514    
   2736.9055    
   3181.0422    
   2828.7544    
   2834.2244    
   3099.6982    
   2828.9595    
   3514.5190    
   3955.1602    
   4422.3979    
   4708.4233    
   5285.7793    
   6032.2192    
   7198.6938    
   8793.0518    
  11156.7246    
  13525.1934    
  16723.9648    
  19482.1211    
  19559.6953    
  17452.1035    
  16050.7109    
  15756.9365    
  15429.5400    
  14190.7969    
  12402.7637    
  11248.0938    
  10873.8594    
  11841.6719    
  13580.5605    
  15950.7705    
  18297.9902    
  18654.1816    
  17047.1563    
  16101.9395    
  16959.2168    
  18944.3984    
  20319.5410    
  21131.0156    
  21187.2988    
  21655.7637    
  22260.4277    
  21777.8125    
  21083.2246    
  20454.2539    
  18442.5586    
  15537.6064    
  12550.6270    
  11587.7383    
  11075.0059    
  11120.2803    
  11744.8613    
  11744.9277    
  13364.5840    
  16755.6289    
  23066.0410    
  32308.8594    
  41147.9141    
  40156.1094    
  30191.2676    
  20717.0332    
  14283.1240    
  10863.3291    
   8113.2217    
   7446.1113    
   6900.4141    
   7470.1182    
   7763.6665    
   8741.3828    
  10143.3438    
  12359.2637    
  13973.4492    
  15461.1719    
  15617.6572    
  16939.7988    
  21894.0605    
  30624.0098    
  34326.4648    
  26039.8887    
  18535.7344    
  14091.0234    
  11989.7910    
  11284.1963    
  10410.7178    
  11603.1533    
  12042.7529    
  11590.2236    
  10056.0303    
   8712.0039    
   7417.9063    
   7340.5107    
   7316.7666    
   6784.3677    
   6066.5200    
   5680.1670    
   5800.9980    
   6136.2617    
   6235.0352    
   6147.9937    
   6392.3755    
   6661.5176    
   6837.9170    
   6891.0107    
   6908.7646    
   6165.7852    
   5755.5962    
   5790.1875    
   5417.5576    
   4861.3369    
   4524.0972    
   4311.8027    
   3884.5281    
   4172.7500    
   4289.6958    
   4390.1802    
   4602.9614    
   4619.8594    
   4580.6499    
   5008.9048    
   5578.4932    
   6166.7993    
   6318.0127    
   5889.1709    
   5395.7324    
   4828.5083    
   4620.4268    
   4868.1177    
   5458.8130    
   7188.3906    
   9102.6104    
  11118.9717    
  11868.0488    
  12270.4004    
  12870.4756    
  13288.4580    
  13173.5527    
  11809.3008    
  10452.3418    
  10503.3730    
  10913.2510    
  10369.8154    
   8973.6631    
   7302.1426    
   5562.8076    
   4436.7593    
   3299.3179    
   2381.3079    
   1923.7927    
   1559.9773    
   1565.2931    
   1313.8737    
   1084.6108    
   1157.5165    
    949.7553    
    846.2536    
    810.1235    
    645.0974    
    789.5779    
    475.5884    
    537.2630    
    485.9759    
    552.8011    
    260.8374    
    209.8566    
    470.8279    
    599.3260    
    578.8129    
    383.8755    
    573.7922    
    281.6986    
    491.7207    
    338.0578    
    174.7099    
    379.1230    
    338.2404    
    646.2590    
    358.8290    
    353.7713    
    297.5760    
    318.0857    
    297.6972    
    487.2555    
    610.6489    
    384.8474    
    477.1722    
    349.1375    
    482.4249    
    226.6210    
    262.4169    
    262.4771    
    451.8882    
    344.3846    
    462.2643    
    313.8161    
    150.5576    
    227.1019    
    483.0259    
    217.0179    
    130.4225    
    565.3837    
    258.0291    
    247.8782    
    242.8319    
    278.6391    
    406.5951    
    488.6961    
    499.0195    
    376.0472    
    673.9991    
    839.2385    
   1327.9595    
   1595.3234    
   1970.1052    
   1896.0348    
   1758.7378    
   1975.5834    
   2471.1782    
   2342.8450    
   1674.6489    
   1318.0393    
   1067.9817    
   1198.1416    
   1187.7772    
   1161.7942    
   1349.6960    
   1585.6364    
   1880.9324    
   1923.3196    
   2162.2170    
   2654.4407    
   3534.0947    
   3665.8989    
   3693.4534    
   3534.2703    
   3858.8833    
   4196.9116    
   3831.4058    
   2865.1365    
   2051.1909    
   1502.4493    
   1319.2695    
   1876.5193    
   2365.6836    
   2211.0066    
   1908.4333    
   1934.9601    
   1681.5532    
   1697.4115    
   1539.7061    
   1466.3243    
   1487.3503    
   1513.6364    
   1382.7078    
   1142.7173    
    800.5202    
    723.1448    
    615.0150    
    332.9203    
    210.3919    
    682.1330    
    404.7502    
    322.9207    
    282.0890    
    369.0797    
    507.5396    
    435.7803    
    553.8827    
    620.7928    
    718.7352    
    796.2136    
    853.1309    
    925.6564    
    786.0554    
   1024.3038    
   1169.9503    
   1133.5668    
   1410.2511    
   1436.4884    
   1852.2092    
   2011.0991    
   2159.8928    
   2197.2087    
   3002.9880    
   4010.9866    
   5852.7056    
   6807.7661    
   6199.9258    
   5651.5962    
   4939.8726    
   4821.4189    
   5778.1816    
   7174.3447    
   6967.2949    
   5910.8853    
   4596.8032    
   3493.9883    
   2593.7900    
   2219.4153    
   2320.8032    
   2134.3665    
   1721.5046    
   1906.3873    
   1922.3228    
   2017.7544    
   2092.1274    
   1964.8527    
   1864.3573    
   2039.1959    
   1811.6312    
   1385.9374    
   1365.0692    
   1427.9244    
   1255.4882    
   1057.7131    
   1021.4152    
   1026.6626    
    778.1995    
    556.7516    
    974.9438    
    830.0297    
    685.5690    
    644.4160    
    825.0253    
    871.6248    
    623.9910    
    721.9313    
    639.5422    
    799.4626    
    985.8661    
    923.7233    
    996.3524    
   1095.0848    
    991.2735    
    804.9589    
    609.1041    
    903.3371    
    439.7513    
    496.2243    
    717.4860    
    820.7884    
    857.0346    
    764.0817    
   1012.5743    
    981.5019    
   1106.1925    
   1382.6838    
   1179.1615    
   1137.5664    
   1257.4634    
    955.9027    
    992.2542    
   1393.4751    
   1755.9996    
   1561.3313    
   1740.2863    
   1635.0209    
   1624.5542    
   1650.9111    
   1587.8651    
   1357.2933    
   1524.9620    
   1462.0878    
   1483.1080    
   1279.1471    
   1383.7101    
    967.1350    
   1190.6605    
   1003.5477    
   1284.6361    
   1279.4689    
   1253.4304    
   1389.3176    
   1614.8981    
   1546.6539    
   2383.7251    
   3410.8262    
   4282.6919    
   4956.0498    
   4238.2573    
   3988.5710    
   3773.2661    
   3203.8989    
   2684.4922    
   2325.4365    
   2840.9041    
   2938.2412    
   3106.3193    
   3280.4619    
   2976.2878    
   2448.7144    
   2277.7786    
   2187.2512    
   2160.6951    
   2022.6366    
   2454.3325    
   2588.4275    
   3248.2458    
   4417.6807    
   5246.3154    
   4754.1885    
   4022.9001    
   4507.3604    
   6235.2769    
   9174.0088    
  12153.6787    
  11982.3252    
   9766.1982    
  10640.0068    
  12081.2920    
   9760.0859    
   5595.1885    
   3047.9399    
   2214.9763    
   1891.2709    
   1575.0691    
   1412.5699    
   1833.2849    
   1266.3431    
   1209.0341    
   1021.8562    
    887.1563    
    449.4003    
    716.7933    
    618.9817    
    753.0035    
    526.5641    
    624.2831    
    748.0008    
    511.3173    
    245.2124    
    531.9580    
    332.1591    
    414.0974    
    496.1781    
    573.2665    
    655.6334    
    475.8104    
    645.4370    
    774.3695    
    681.5898    
    945.1484    
   1366.8231    
   1194.6389    
   1278.1173    
   1461.1958    
   1158.3392    
   1330.4896    
   1054.4465    
   1168.9030    
   1398.6184    
   1545.4150    
   1566.4681    
   1687.4636    
   2201.1060    
   1983.3763    
   1904.0059    
   1446.0900    
    966.7449    
    977.1631    
   1107.0221    
    739.3660    
    713.6304    
    713.6809    
    780.8040    
    972.2836    
   1008.6394    
    719.0392    
    683.0110    
    858.5668    
    900.0068    
   1133.5833    
   1295.1942    
   1190.9476    
   1227.4751    
   1071.3940    
   1035.0897    
    874.4853    
    874.5353    
    637.2186    
    616.6851    
    508.8243    
    585.9254    
    442.2462    
    191.8414    
    207.1857    
    186.8429    
    268.5172    
    110.5508    
    304.3720    
    212.5346    
    192.1893    
    202.4337    
      0.0000    
    100.6738    
     49.8779    
    141.4906    
    156.8178    
     65.2736    
      0.0000    
      4.4097    
    136.6451    
    141.7868    
     85.8590    
     85.9082    
     45.2888    
    172.5441    
    131.8484    
    346.2083    
      0.0000    
    177.8368    
    366.8150    
