  11100 12  1   BR251    POSU   unk  .000 U SI 022693 00.01   1        
  PROGRAM LAMBDA-9   VERSION 02.31                                     
  USER BMW DATE & TIME  1993 02 26 16.00 34.19    4.9200    295K S     
 AU1 HO  44     0     0 YLF             1.850000 - 2.100000 .00020     
 FILE NAME                                ON PC = BR251.SP             
 NO_POINTS  =  1251.    pts   DATA_INTV =  .000200 æm                  
 MIN_LAMBDA =  1.850000 æm     MIN_DATA =    .76470                    
 MAX_LAMBDA =  2.100000 æm     MAX_DATA =    .91730                    
 SCANSPEED  = 15.000000 NM/MIN SLITWIDTH=   .00000 æm                  
  RESP TIME =   .5      sec SENSITIVITY = 5          DATE=93/02/26     
 15:28:42    93/02/26                                                  
  BR251                                                                
  This spectra is part of Database LASERS
 Database LASERS was created by Pat Cross working 
 at NASA Langley Research Center, Internal Operations Group,
 Aerospace Electronics Systems Division, Remote Sensing 
 Technology Branch. phone:(757)864-1633   fax:(757)864-7894 
     e-mail p.l.cross@larc.nasa.gov 
     homepage http://aesd.larc.nasa.gov/laser/dbmain.htm
  EOH     (1X,F11.4)                                                   
  1251.         
      0.0000    
      0.0000    
      0.0000    
      0.0000    
     28.8759    
    104.8114    
      0.0000    
      3.0216    
     78.9153    
      0.0000    
      0.0000    
     68.2552    
      0.0000    
      0.0000    
      0.0000    
      0.0000    
      0.0000    
      0.0000    
      0.0000    
      0.0000    
      0.0000    
      0.0000    
      0.0000    
      0.0000    
      0.0000    
      0.0000    
      0.0000    
     14.8082    
      4.5030    
    136.2713    
     80.2343    
      0.0000    
     64.6687    
     79.7219    
      0.0000    
      0.0000    
      0.0000    
      0.0000    
      0.0000    
      0.0000    
     37.9383    
     58.0572    
      0.0000    
     57.7156    
     93.0724    
     72.5964    
      0.0000    
      0.0000    
      0.0000    
      0.0000    
      0.0000    
      0.0000    
     51.1047    
      0.2336    
    182.8474    
    243.7669    
    274.1700    
    233.2365    
    166.9051    
      0.0000    
     14.2421    
      0.0000    
      0.0000    
      0.0000    
      0.0000    
    109.8004    
     53.7879    
     68.8395    
    200.8111    
      7.6357    
    134.3496    
    174.8564    
     78.1357    
     37.3753    
     52.4218    
     42.1036    
    133.3250    
    112.8289    
    127.9036    
    117.5687    
    249.6859    
    208.7703    
    254.4407    
     40.7376    
    106.5560    
      0.0000    
      0.0000    
     90.8080    
     24.6698    
     75.2328    
     80.1394    
      0.0000    
     23.9868    
    155.8422    
     74.3790    
    150.4150    
     23.3038    
     68.7930    
     73.6960    
      2.5131    
     73.3545    
      0.0000    
     32.4234    
     57.6166    
     82.8268    
      0.0000    
     62.1801    
      0.0000    
     16.1867    
     61.6678    
      0.0000    
    259.6805    
      0.0000    
    142.2594    
      0.0000    
    172.4313    
    126.4951    
    136.4919    
    100.7506    
      0.0000    
     90.2494    
     90.0787    
     79.7535    
     54.2018    
    114.9669    
    308.2871    
    211.2711    
    134.7845    
      0.0000    
      0.0000    
     27.6427    
      0.0000    
      0.0000    
      0.0000    
      0.0000    
     72.4560    
    189.2004    
    133.0772    
     46.5688    
    229.4240    
    229.2533    
      0.0000    
    127.1395    
     86.3226    
    116.6347    
     75.8267    
     85.8104    
     80.5637    
    202.4226    
    207.3443    
    304.0189    
    161.1971    
    227.2046    
    196.4771    
     33.6886    
     38.5919    
      0.0000    
      0.0000    
     93.9215    
     58.2076    
    225.8388    
    215.4793    
    184.7616    
    317.1123    
    230.2482    
    250.4611    
     57.0126    
    112.7082    
    204.1007    
    132.6988    
    249.6076    
    157.7827    
    274.7591    
    218.5249    
    361.1943    
    447.9635    
    289.3776    
    381.1245    
    289.0362    
    263.3641    
    441.9935    
    283.4221    
    364.9391    
    267.7810    
    288.0120    
    441.1400    
    440.9692    
    533.0220    
    584.1655    
    522.4227    
    553.0262    
    619.6075    
    604.0249    
    830.4180    
    747.7327    
    783.6446    
    881.5560    
    809.0950    
    881.2146    
    896.5490    
    849.8756    
   1046.3638    
   1212.4506    
   1009.7333    
   1180.8882    
   1118.3448    
   1352.5133    
   1399.3553    
   1467.1730    
   1508.8925    
   1629.3674    
   1608.1920    
   2051.1274    
   1923.9211    
   2071.9932    
   2119.5750    
   1928.6962    
   2018.4830    
   2214.7129    
   2166.6909    
   2118.7214    
   2267.4248    
   2198.0720    
   2213.8594    
   2133.9661    
   1921.8729    
   1921.7021    
   1736.8947    
   1868.5326    
   1884.2037    
   1773.2510    
   1862.7401    
   1772.9097    
   1709.5527    
   1936.1968    
   1793.4789    
   1856.6068    
   1845.8813    
   1787.6948    
   1871.9330    
   2163.1064    
   2141.6848    
   2322.4587    
   2221.0845    
   2220.9138    
   2519.6619    
   2348.4434    
   2476.5015    
   2316.1018    
   2188.1489    
   2337.0925    
   2150.6040    
   1954.2808    
   1917.0940    
   1658.6378    
   1658.4672    
   1842.6387    
   1621.3456    
   1542.4575    
   1621.0043    
   1374.6343    
   1337.9078    
   1322.0765    
   1186.4276    
   1300.8689    
   1274.6240    
   1342.2728    
   1326.4429    
   1206.3921    
   1268.7277    
   1399.0548    
   1440.7223    
   1597.7810    
   1545.1390    
   1445.4435    
   1544.7977    
   1492.2183    
   1823.2257    
   1955.1349    
   1907.3704    
   2135.0291    
   2087.0815    
   2241.0408    
   2347.4653    
   2299.2974    
   2379.1501    
   2496.6025    
   2394.8333    
   2506.9709    
   2501.4451    
   2399.6609    
   2330.0955    
   2474.1702    
   2436.5591    
   2484.5334    
   2645.2056    
   2457.4385    
   2521.5010    
   2574.9248    
   2446.2312    
   2478.1570    
   2585.1411    
   2617.1638    
   2488.3511    
   2472.1223    
   2627.3870    
   2627.2163    
   2745.3123    
   2777.4509    
   2793.4417    
   2976.8347    
   2992.8955    
   3090.2371    
   3214.9670    
   3361.8477    
   3531.0969    
   3805.4968    
   3876.9814    
   4297.9653    
   4336.7788    
   4560.0098    
   4694.3989    
   4795.4072    
   4947.4229    
   5145.2769    
   5326.9038    
   5549.2705    
   5818.7192    
   5904.9302    
   5922.0547    
   6066.2661    
   6089.2393    
   6037.0146    
   5967.5264    
   5978.8999    
   5782.8486    
   5564.7300    
   5347.6318    
   5467.2148    
   5188.1011    
   5216.3184    
   4899.2070    
   4629.0933    
   4617.7109    
   4226.7778    
   4098.9297    
   4004.6174    
   3679.1948    
   3717.4937    
   3547.2019    
   3601.8403    
   3448.3667    
   3431.8013    
   3409.7791    
   3540.8706    
   3360.3086    
   3327.4163    
   3387.2554    
   3305.2722    
   3174.5046    
   3163.4656    
   3185.0310    
   3228.3630    
   3195.5632    
   3233.4634    
   3325.8809    
   3205.9243    
   3347.3525    
   2966.9390    
   2842.5139    
   2853.1335    
   2702.1094    
   2626.6965    
   2465.7019    
   2188.0928    
   2347.7783    
   2481.2466    
   2400.8457    
   2438.1013    
   2405.8496    
   2416.3713    
   2453.6367    
   2469.5190    
   2341.0784    
   2522.7288    
   2511.8445    
   2559.9106    
   2801.6924    
   2850.0627    
   3001.2400    
   3028.1494    
   3250.6267    
   3414.0486    
   3468.5378    
   3742.6443    
   3681.9958    
   3572.0608    
   3692.6440    
   3774.9873    
   3824.3938    
   3967.7512    
   3846.1050    
   4189.0962    
   4339.1655    
   4294.4302    
   4305.3960    
   4545.3379    
   4394.2549    
   4556.1973    
   4505.6533    
   4634.3208    
   4667.8179    
   4527.5225    
   4639.4165    
   4790.9697    
   4751.4160    
   4903.3354    
   4858.0479    
   4683.4673    
   4767.6074    
   4716.8306    
   4464.4663    
   4581.8149    
   4525.6460    
   4631.9331    
   4542.0972    
   4446.8501    
   4346.2217    
   4340.4761    
   4290.1660    
   4345.7104    
   4306.5322    
   4401.1509    
   4417.7280    
   4546.1616    
   4518.0024    
   4613.0581    
   4624.1055    
   4809.3960    
   4674.2690    
   4550.7388    
   4876.5073    
   4707.4614    
   4673.5869    
   4645.3525    
   4684.4790    
   4785.5117    
   5028.0054    
   5039.1514    
   5118.2827    
   5089.7764    
   4886.0845    
   4936.7085    
   5066.6064    
   4908.1421    
   5009.6699    
   4930.3818    
   5128.2603    
   5105.4121    
   5093.9087    
   5156.1089    
   5224.0801    
   5508.9155    
   5503.0264    
   5668.9482    
   5565.6157    
   5674.3462    
   5766.0820    
   5956.0420    
   6175.7886    
   6466.5840    
   6595.0220    
   6870.8105    
   7142.3325    
   7481.0571    
   7636.3013    
   7738.0298    
   7870.0649    
   7918.0635    
   8044.5742    
   7953.8809    
   8001.9678    
   7965.6011    
   7766.8506    
   7886.9277    
   7730.4937    
   7592.5317    
   7472.8726    
   7045.0898    
   7068.5723    
   7169.0635    
   6808.7183    
   6503.7139    
   6491.8608    
   6310.9590    
   6310.7886    
   6142.1865    
   5928.0117    
   5991.3613    
   5720.3945    
   5536.7568    
   5485.1152    
   5165.9751    
   5080.7383    
   4865.7637    
   4383.1196    
   4573.0942    
   4221.2134    
   4082.2146    
   4010.0193    
   3971.1121    
   3865.9614    
   3932.0669    
   3766.3857    
   3755.2039    
   3656.0352    
   3633.8933    
   3545.9424    
   3447.2195    
   3359.6250    
   3392.2188    
   3195.8040    
   3233.7266    
   3315.2913    
   3271.5103    
   3211.4431    
   2983.2905    
   3021.0391    
   2955.8821    
   2858.4050    
   2691.1309    
   2804.0938    
   2685.4084    
   2733.6860    
   2841.3552    
   2711.8066    
   2738.5615    
   2668.4189    
   2625.2419    
   2791.9446    
   2824.1404    
   2796.9944    
   2753.7000    
   2758.9158    
   2877.4539    
   3012.5503    
   3017.7996    
   3061.0042    
   3115.1082    
   2990.1985    
   2946.7224    
   2984.4441    
   3185.0784    
   3054.5564    
   3081.5137    
   3141.0776    
   3162.6482    
   3282.2322    
   3271.1633    
   3216.5327    
   3205.4761    
   3265.2021    
   3156.1882    
   3177.7666    
   3264.6907    
   3242.7302    
   3449.9778    
   3515.4988    
   3723.9790    
   3845.0376    
   3850.3828    
   3888.8596    
   4054.6721    
   3844.3557    
   4010.0095    
   3965.5630    
   4009.6685    
   3987.3564    
   3815.9221    
   3942.7573    
   3892.8462    
   3809.8958    
   3732.5986    
   3649.9373    
   3435.9675    
   3468.6267    
   3146.6606    
   3010.8101    
   2999.8040    
   2783.4209    
   2750.9036    
   2659.2134    
   2385.5635    
   2433.5381    
   2519.0784    
   2443.9011    
   2465.1492    
   2123.4746    
   2197.7925    
   2149.7241    
   2000.8478    
   1937.0956    
   1984.6031    
   1852.1107    
   1947.1740    
   1925.8231    
   1888.6112    
   1914.8973    
   1925.3118    
   1756.0502    
   1803.3757    
   1666.1313    
   1492.5664    
   1392.8567    
   1309.0322    
   1476.3247    
   1549.6105    
   1413.1129    
   1507.2794    
   1449.4355    
   1569.9381    
   1632.8533    
   1401.7921    
   1490.6915    
   1390.9818    
   1406.5164    
   1432.5265    
   1521.4866    
   1390.3002    
   1494.9147    
   1342.8859    
   1478.8417    
   1405.3234    
   1264.0221    
   1321.2969    
   1096.9736    
    992.9169    
   1252.9049    
   1138.0837    
   1117.0979    
   1174.1915    
    909.1211    
   1111.3835    
   1090.4094    
   1007.1213    
   1142.0968    
   1079.5015    
   1058.5415    
    985.6827    
   1047.8109    
   1104.8176    
   1187.9460    
   1026.5240    
   1166.7664    
   1187.4348    
   1072.7687    
   1135.0161    
    870.1541    
    963.2310    
    937.1384    
    957.7039    
    859.1246    
    843.4322    
    869.1316    
    957.0223    
   1008.7309    
    930.7654    
    982.4448    
    764.8931    
    800.8820    
    898.9993    
    805.7068    
    872.7743    
    929.5725    
    707.1057    
    908.5074    
   1006.8564    
   1032.6489    
   1011.7076    
    954.4662    
   1026.9434    
   1052.7476    
   1005.8340    
    803.6620    
    860.3774    
    865.3828    
   1015.5371    
    916.8221    
    984.0555    
   1040.9946    
    900.7711    
    864.3604    
   1040.4835    
    895.0801    
    941.5427    
   1019.1968    
    858.3327    
    982.5220    
   1003.1077    
   1101.6704    
   1148.3433    
   1090.9282    
   1309.7092    
   1215.5750    
   1106.0216    
   1131.8727    
   1126.4962    
   1017.1522    
   1251.2417    
   1152.0151    
   1224.8151    
   1240.2950    
   1266.2195    
   1333.9713    
   1475.1846    
   1396.4130    
   1537.8219    
   1537.6516    
   1490.2388    
   1579.3440    
   1642.2920    
   1673.7163    
   1668.2781    
   1631.2562    
   1704.8184    
   1900.0829    
   1831.1504    
   1989.8132    
   1793.8274    
   1915.2832    
   2116.7612    
   1893.7670    
   2063.2700    
   1983.4869    
   1813.9347    
   1887.7924    
   2078.5271    
   1913.9203    
   2056.9353    
   1913.5796    
   1918.7023    
   2061.7368    
   1955.4487    
   2077.3345    
   1986.9171    
   1870.2161    
   1997.1833    
   1933.4020    
   1933.2317    
   1748.0198    
   1837.6354    
   1747.6791    
   1837.2947    
   1942.9746    
   1905.7288    
   1773.3878    
   1531.0076    
   1646.5189    
   1704.2983    
   1614.5980    
   1709.2272    
   1672.1674    
   1645.6672    
   1503.5631    
   1529.6449    
   1529.4745    
   1482.0618    
   1508.1316    
   1502.7114    
   1518.2893    
   1586.4275    
   1696.8119    
   1696.6416    
   1823.1439    
   1780.7097    
   1480.5288    
   1632.7523    
   1501.1785    
   1527.2601    
   1579.6357    
   1705.8204    
   1684.5664    
   1600.1604    
   1668.4200    
   1895.3237    
   1879.2753    
   2000.9823    
   1884.2278    
   1804.7363    
   1920.9500    
   1957.8721    
   1878.2533    
   1756.5295    
   1819.7374    
   1909.5042    
   1904.0408    
   2009.8907    
   1951.3782    
   1924.7151    
   1951.0376    
   2051.6873    
   1850.0999    
   1765.3823    
   1818.0343    
   1543.8436    
   1617.2885    
   1822.8098    
   1706.4951    
   1737.9705    
   1901.6564    
   1901.4861    
   1858.9745    
   1811.2157    
   1805.7632    
   1858.4635    
   1673.5087    
   1805.2523    
   1942.6742    
   1794.3429    
   1841.7448    
   1830.9973    
   1772.7050    
   1925.9232    
   1925.7529    
   1973.2913    
   1909.5215    
   1782.4174    
   1771.6832    
   1829.6349    
   1686.9338    
   1945.7583    
   1665.5143    
   1802.5276    
   1966.4545    
   1913.2863    
   2024.4830    
   2013.6960    
   2040.0735    
   2204.8542    
   2151.4077    
   2060.8137    
   2172.3696    
   2241.5010    
   2268.0103    
   2278.5188    
   2219.6558    
   2278.1782    
   2283.3450    
   2267.1589    
   2325.7424    
   2395.1067    
   2266.6482    
   2266.4778    
   2133.0542    
   2340.9272    
   2501.4316    
   2479.8057    
   2431.3984    
   2463.3806    
   2259.9507    
   2457.6787    
   2280.9612    
   2409.1238    
   2441.0908    
   2136.5049    
   2430.0364    
   2429.8662    
   2306.6470    
   2424.1680    
   2386.5183    
   2226.0635    
   2354.0776    
   2220.3921    
   2156.2700    
   2092.2366    
   1779.3568    
   1943.2273    
   1980.1794    
   2027.7836    
   2080.7515    
   1894.8596    
   1915.8771    
   1968.7201    
   1883.7603    
   1825.3881    
   1851.6653    
   1682.5005    
   1666.5160    
   1629.4731    
   1592.4597    
   1692.3622    
   1523.7749    
   1834.6045    
   1834.4343    
   1760.2753    
   1717.8829    
   1549.1997    
   1564.8010    
   1664.6433    
   1622.3376    
   1564.2903    
   1585.1581    
   1427.4366    
   1600.6018    
   1737.4586    
   1642.3806    
   1768.7964    
   1689.4681    
   1552.4114    
   1763.0034    
   1609.9348    
   1783.7925    
   1625.3875    
   1683.1735    
   1688.2765    
   1761.9821    
   1703.7562    
   1840.9264    
   1787.8855    
   1819.4298    
   1909.2378    
   1813.8010    
   1967.2128    
   1776.4657    
   1712.9463    
   1908.3867    
   1760.1096    
   1870.9750    
   2003.3395    
   1913.0050    
   1981.7675    
   2087.8525    
   1992.0432    
   2082.1926    
   2012.9391    
   2071.2185    
   2071.0483    
   1996.5011    
   2060.0735    
   1969.6251    
   1942.9346    
   2032.9938    
   2085.9802    
   2037.9641    
   2016.5485    
   1873.2062    
   1973.7402    
   2074.4910    
   1973.3998    
   1978.5336    
   2042.0872    
   1824.5615    
   2025.8083    
   2249.2842    
   2121.1841    
   2099.7261    
   1961.4258    
   2009.0245    
   2046.0406    
   2067.1338    
   2157.4395    
   2050.8457    
   2109.1790    
   2093.0435    
   2204.7314    
   1959.8940    
   2119.1418    
   1991.3951    
   1922.2654    
   1937.9989    
   1948.4363    
   1948.2661    
   1916.2869    
   1841.9752    
   2107.1370    
   2117.6101    
   2144.0642    
   2048.1228    
   1788.2416    
   2031.8373    
   1973.2578    
   1830.0337    
   1957.0010    
   1792.6772    
   1893.0497    
   2025.5055    
   1951.0182    
   2035.7904    
   2014.3691    
   2088.6189    
   2061.8582    
   2051.0535    
   2003.0682    
   2040.0845    
   1769.6661    
   1832.9426    
   1917.5006    
   1938.5376    
   1964.8907    
   2076.2798    
   2102.7124    
   2278.4954    
   2337.1267    
   2299.5291    
   2235.2698    
   2139.1294    
   2117.6594    
   2202.7451    
   2197.2439    
   2245.0933    
   2218.2373    
   2143.4326    
   2281.9670    
   2313.8638    
   2335.0847    
   2281.4565    
   2281.2864    
   2185.0464    
   2190.2090    
   2067.5574    
   2131.2505    
   1966.2813    
   1918.3783    
   1992.4827    
   2194.5217    
   2130.3999    
   2306.3079    
   2002.4243    
   2177.8425    
   2151.0266    
   2055.0522    
   2076.1550    
   1906.0774    
   2059.8567    
   2198.1511    
   2102.0771    
   2149.8357    
   2027.2830    
   2000.5529    
   2181.3032    
   2106.5503    
   2101.0564    
   2191.4592    
   2212.6228    
   2127.1672    
   2174.9502    
   2286.8679    
   2393.7036    
   2318.6050    
   2420.1545    
   2710.3054    
   2559.3696    
   2699.1812    
   2796.1699    
   2817.6189    
   2876.9524    
   3012.3032    
   2925.3525    
   3044.5461    
   3169.4971    
   3076.8154    
   3207.3040    
   3332.6953    
   3228.7769    
   3212.2468    
   3081.3994    
   3277.3809    
   3097.3728    
   3075.4546    
   3205.9431    
   3064.2410    
   2885.0564    
   2879.4749    
   2744.1646    
   2808.8103    
   2625.2266    
   2528.2480    
   2511.9636    
   2415.2212    
   2307.9834    
   2355.9639    
   2232.8445    
   2371.6841    
   2355.4536    
   2200.3157    
   2205.4783    
   2167.9758    
   1827.8724    
   1859.4640    
   1838.1191    
   1811.4895    
   1563.3485    
   1552.6573    
   1520.9321    
   1631.2916    
   1347.4338    
   1326.3218    
   1258.1449    
   1289.3513    
   1257.8047    
   1116.7142    
   1116.5442    
    913.5767    
    768.3527    
    876.9311    
    814.5881    
    716.1493    
    850.5046    
    798.5486    
    746.6506    
    943.3568    
    803.2122    
    730.6305    
    622.0554    
    493.1620    
    385.1413    
    364.4563    
    420.7234    
    528.4880    
    297.3379    
    348.3967    
    491.9716    
    445.5503    
    404.3048    
    393.8701    
    280.9602    
    296.1475    
    147.7321    
    167.9817    
    285.3965    
     24.8930    
    193.0066    
    259.3004    
    228.4417    
    294.7870    
    212.7664    
    105.3893    
    422.4572    
    253.1634    
    125.2808    
    201.6965    
    135.1434    
     38.1281    
     53.2358    
    155.0485    
    267.3219    
    185.3496    
    113.7170    
      0.0000    
     87.8842    
     97.9090    
    164.0707    
      0.0000    
    158.6241    
    153.3481    
    148.0757    
    142.8008    
    132.4228    
     20.1319    
    147.3956    
     50.3452    
     60.3621    
     39.8174    
      0.0000    
     80.2357    
     64.7778    
     90.0923    
    181.7789    
      0.0000    
    206.9852    
    293.7840    
     79.0455    
    206.4752    
    119.4998    
     53.0596    
      1.9739    
      0.0000    
    103.5184    
    179.9088    
    143.9952    
    312.5715    
    276.5549    
    220.1102    
    214.8300    
      0.0000    
     25.7246    
     91.7882    
      0.0000    
      0.0000    
     65.7939    
      0.0000    
    131.7460    
    233.7535    
    177.3587    
    258.9910    
     54.5817    
    130.8960    
    130.7260    
     59.1675    
      8.0737    
     33.3571    
      0.0000    
    175.8287    
    226.7686    
    252.1732    
    205.9773    
    108.7877    
     67.8279    
    139.0652    
     92.9781    
      0.0000    
    102.8363    
      0.0000    
      0.0000    
      0.0000    
     86.8585    
    178.5553    
      0.0000    
    254.9113    
    285.4541    
    203.4275    
    121.5427    
    157.1044    
    131.4107    
     85.3287    
    146.3839    
      0.0000    
      0.0000    
      3.1442    
    145.7040    
    130.2209    
     84.1389    
    247.4138    
    109.3004    
     58.1447    
    129.3711    
     67.9962    
     11.7936    
      6.5323    
      0.0000    
      0.0000    
     21.2981    
     56.7850    
    122.9072    
    127.8415    
      0.0000    
     96.8874    
    117.1236    
    116.9537    
    162.7313    
    203.4414    
