  11100 11  1   BR259    PO     BMW  .000 U S1 042793 00.01   1        
  PROGRAM LAMBDA-9   VERSION 02.31                                     
  USER BMW DATE & TIME  1993 04 27 04.04 00.00    4.9200    295K P     
 AU1 HO  44     0     0 YLF              .435000 -  .495000 .00010     
 FILE NAME                                ON PC = BR259.SP             
 NO_POINTS  =   601.    pts   DATA_INTV =  .000100 æm                  
 MIN_LAMBDA =   .435000 æm     MIN_DATA =    .34610                    
 MAX_LAMBDA =   .495000 æm     MAX_DATA =    .90600                    
 SCANSPEED  = 15.000000 NM/MIN SLITWIDTH=   .20000 NM                  
  RESP TIME =   .5      sec SENSITIVITY = 5          DATE=93/04/27     
 OSU SAMPLE--CONC CORRECTED .44%                                       
  This spectra is part of Database LASERS
 Database LASERS was created by Pat Cross working 
 at NASA Langley Research Center, Internal Operations Group,
 Aerospace Electronics Systems Division, Remote Sensing 
 Technology Branch. phone:(757)864-1633   fax:(757)864-7894 
     e-mail p.l.cross@larc.nasa.gov 
     homepage http://aesd.larc.nasa.gov/laser/dbmain.htm
  EOH     (1X,F11.4)                                                   
   601.         
     96.8831    
    215.1055    
    102.0303    
     14.8459    
    297.5382    
    220.2787    
    235.7280    
     66.1402    
    323.3500    
    313.0421    
    158.5879    
    138.0383    
    473.2128    
    266.6741    
    354.3483    
    473.2320    
    406.0111    
      0.0000    
    452.5547    
    230.6620    
    313.1124    
    587.2651    
     71.3671    
      0.0000    
    499.1737    
    395.7326    
     35.4942    
    576.9268    
    215.2781    
    210.1375    
    107.3441    
    390.6036    
    561.4012    
    169.0143    
    282.2660    
    431.9755    
    323.5282    
    660.0549    
    654.8645    
    225.6402    
    582.1969    
    946.7562    
    691.2727    
    899.7349    
    978.1556    
    432.0385    
    577.0467    
    884.0936    
    936.3427    
   1103.9259    
   1398.6648    
   1025.3103    
   1098.7009    
   1467.3718    
   1203.7454    
   1093.4734    
   1477.9690    
   1298.4988    
   1245.8513    
   1198.5183    
   1224.8185    
   1062.0519    
   1182.7692    
   1035.8628    
   1599.8231    
   1219.5890    
   1409.3241    
   1314.3684    
   1156.5394    
   1293.3043    
   1700.7266    
   1499.2201    
   1261.7278    
   1483.3616    
   1272.2684    
   1887.1396    
   1525.7166    
   1956.5708    
   1727.3542    
   1769.9211    
   1860.5002    
   1520.4524    
   1594.6309    
   1557.5360    
   1716.7587    
   1817.8867    
   1828.5486    
   2010.1058    
   2058.2874    
   1967.3356    
   2133.3411    
   2396.9602    
   2814.2737    
   2299.9609    
   2375.4023    
   2402.3779    
   2624.1455    
   3175.0242    
   3555.1824    
   4016.6565    
   4760.1924    
   5631.4756    
   6578.5376    
   7611.8149    
   7945.2202    
   8213.6895    
   8115.8906    
   9197.0400    
  10503.0068    
  11274.5996    
  11104.9189    
  10413.0918    
  10240.1455    
  11163.6064    
  11999.5078    
  15181.8018    
  19216.7090    
  22100.2500    
  21094.6719    
  17494.3633    
  14015.5156    
  10832.1885    
   8836.0010    
   6976.0977    
   6313.6475    
   6325.3984    
   6809.6099    
   8299.5693    
   9775.8545    
  11477.8545    
  12986.4131    
  12326.2129    
  10612.5908    
   8904.3369    
   8379.3760    
   7927.1602    
   7769.3208    
   7551.6602    
   8293.5039    
   8699.8555    
   8699.8613    
   7672.4819    
   7029.8569    
   7029.8628    
   6994.0981    
   7539.6465    
   7988.0776    
   8935.4893    
   9103.6211    
   8496.2959    
   7957.6636    
   7745.1738    
   8079.5444    
   8354.9307    
   8613.4512    
   9763.3555    
  11524.0078    
  12628.3506    
  13939.4863    
  15453.2490    
  15884.7041    
  16051.1758    
  16393.2246    
  18180.4395    
  20925.4297    
  23904.0176    
  23272.3945    
  19787.3613    
  17382.5781    
  17203.8281    
  18653.6406    
  19873.9414    
  20174.2129    
  19575.6211    
  19693.1582    
  21509.3066    
  27309.5547    
  36956.0078    
  44238.5820    
  40153.6406    
  30458.2969    
  20812.8613    
  13690.9385    
  10587.1162    
   8422.6787    
   7077.8496    
   6366.8950    
   5805.9097    
   5742.0674    
   5464.4966    
   5753.6831    
   6155.7524    
   6584.9785    
   6940.7769    
   6579.0825    
   5974.7056    
   5689.9424    
   4925.7344    
   4472.0786    
   4489.0156    
   4112.3428    
   3833.2322    
   3805.4175    
   3683.2173    
   3445.2964    
   3577.9497    
   3236.0637    
   3016.8296    
   3093.4504    
   2902.1563    
   2863.9968    
   2684.5032    
   2804.0977    
   2836.7710    
   2657.3831    
   2457.0784    
   2749.7246    
   3120.8967    
   4039.7109    
   4954.3608    
   6667.9126    
   8392.1689    
  10400.9072    
  12006.7900    
  11774.8838    
  10716.3750    
   9580.6211    
   8019.0059    
   6887.4351    
   6167.6787    
   5858.4624    
   5257.6416    
   4275.1895    
   2989.6445    
   2559.9390    
   2295.4106    
   1749.5615    
   1600.8473    
   1320.6510    
   1331.1981    
   1173.3147    
   1110.3136    
   1089.3361    
    812.2164    
    911.3789    
    760.1262    
    598.9861    
    827.8804    
    650.9202    
    885.2914    
    604.1989    
    495.3493    
    557.5278    
    479.8311    
    479.8367    
    666.5464    
    702.9433    
    428.1255    
    500.5671    
    345.4898    
    692.5634    
    376.4747    
    433.3214    
    640.6136    
    417.8241    
    536.8667    
    257.8805    
    505.7933    
    417.8463    
    583.5503    
    386.8560    
    583.5613    
    552.4541    
    386.8726    
    438.5598    
    355.8999    
    423.0606    
    407.5611    
    417.9017    
    376.5745    
    361.0906    
    309.5011    
    335.2984    
    196.2036    
    294.0506    
    459.3100    
    371.4514    
    459.3210    
    371.4624    
    361.1401    
    547.3689    
    433.4818    
    294.0946    
    433.4927    
    568.1291    
    505.9478    
    454.1963    
    454.2018    
    526.6838    
    500.7935    
    963.9615    
    911.6947    
   1210.4513    
   1263.0685    
   1415.9896    
   1458.2687    
   1654.2886    
   1813.8405    
   1781.8938    
   1808.5234    
   1957.9187    
   1920.5314    
   1696.8135    
   1601.2678    
   1776.6021    
   2043.5308    
   2102.4670    
   2086.3936    
   1947.2767    
   1883.2122    
   2473.8706    
   2555.0081    
   3094.0847    
   3170.8325    
   3319.2046    
   4247.6152    
   4704.7378    
   4337.5640    
   3473.5903    
   2908.2747    
   3110.5615    
   4118.6719    
   3501.2292    
   2301.3347    
   1856.6257    
   1601.3865    
   1899.3152    
   2226.0437    
   1968.7607    
   1511.3472    
   1126.5999    
   1037.4645    
    953.7274    
    885.8059    
    625.4769    
    745.0552    
    739.8545    
    609.9199    
    428.6219    
    672.2542    
    812.8019    
    703.4612    
    511.4352    
    573.6342    
    734.6916    
    672.2861    
    771.1467    
    922.4445    
   1074.2394    
   1074.2446    
   1137.2067    
   1516.7579    
   1649.2827    
   1771.5409    
   2134.8987    
   2479.5129    
   2843.0596    
   4124.4614    
   6180.1465    
   9713.9561    
  12683.4326    
  12798.1699    
  11269.5449    
   8147.9409    
   5847.6177    
   4784.4663    
   3734.1235    
   3518.0508    
   3039.6453    
   2718.0068    
   2990.4451    
   3545.7156    
   3878.7686    
   4371.6318    
   4665.3628    
   5115.2080    
   5149.5571    
   5115.2188    
   4490.0522    
   4007.1145    
   3817.5745    
   3912.2551    
   3973.6252    
   4203.0723    
   3995.9707    
   3817.6006    
   3094.4771    
   2974.1431    
   2571.6589    
   1926.3396    
   1979.7781    
   1974.4393    
   1835.6599    
   1601.7450    
   1585.8447    
   1442.9403    
   1427.0946    
   1474.6720    
   1862.3491    
   1448.2469    
   1147.9678    
   1321.5846    
   1168.9874    
   1163.7386    
    980.2594    
    766.2463    
    839.2218    
    901.8604    
    797.5215    
    657.0318    
    641.4534    
    745.4532    
    917.5577    
    657.0524    
    907.1207    
    933.2501    
    724.6613    
    802.7772    
    745.4892    
    672.6719    
   1022.2175    
   1326.9594    
   1406.1013    
   1899.8229    
   1915.8419    
   2033.4565    
   1793.2151    
   1755.9611    
   1809.2024    
   1708.1119    
   2033.4821    
   2539.3970    
   2783.5710    
   2539.4070    
   2707.4800    
   1905.2192    
   2087.0698    
   1782.6239    
   1559.5713    
   1873.2247    
   1548.9879    
   1676.2911    
   1835.9161    
   1803.9543    
   1980.0548    
   1782.6644    
   1819.9502    
   1448.4922    
   1327.0966    
   1522.5557    
   1379.8505    
   1628.5649    
   1400.9756    
   1448.5225    
   1385.1493    
   1772.0670    
   1926.6821    
   1490.8452    
   1258.6670    
   1485.5645    
   1660.4559    
   1820.0258    
   1788.0718    
   1862.6801    
   2119.3745    
   2702.2043    
   3188.0886    
   4767.9492    
   6527.4829    
   9588.2725    
  11796.0791    
  10957.3691    
   8442.7246    
   5807.5000    
   5316.4180    
   4881.7095    
   5310.6807    
   7157.1519    
   8732.6807    
   8819.3994    
   7571.6787    
   5685.7266    
   4841.9102    
   4405.9878    
   4007.6489    
   3452.3689    
   2631.7649    
   2920.0554    
   3105.9487    
   2496.4177    
   2108.7813    
   1862.8195    
   2108.7913    
   2637.2200    
   3133.3796    
   5144.4346    
   8387.5352    
  14871.9160    
  22326.0742    
  24441.8008    
  18548.1934    
  12101.4043    
   8142.5371    
   5929.7847    
   4473.7593    
   3684.8740    
   3331.2000    
   3111.5220    
   2822.0486    
   2724.1509    
   2740.4580    
   2621.0427    
   2702.4373    
   3089.6401    
   3336.7456    
   3413.8958    
   3718.2271    
   4558.5459    
   5633.7988    
   6052.3223    
   6474.6724    
   5912.4053    
   4564.2251    
   4013.4285    
   3480.1682    
   2718.7952    
   2280.8413    
   1751.1379    
   1369.6813    
   1353.8606    
   1206.4171    
   1001.8281    
    876.3787    
   1028.0154    
   1069.9390    
    907.7241    
    553.8727    
    507.2446    
    834.6642    
    865.9716    
    824.2424    
    626.5282    
    636.9169    
    839.9051    
   1174.9508    
   1549.5072    
   1745.9125    
   2194.9199    
   2404.8835    
   2626.6499    
   2189.5657    
   2168.0920    
   1682.1516    
   1512.4829    
   1248.6140    
   1038.5992    
    949.6351    
    621.4127    
    735.7714    
    699.3604    
    429.7433    
    445.2601    
    497.0102    
    182.2624    
    331.6365    
    290.3870    
    264.6259    
    182.2815    
    130.8921    
    259.4912    
    187.4393    
     59.0500    
      0.0000    
     79.5759    
    208.0319    
    218.3299    
    151.4817    
    244.0795    
      0.0000    
    238.9393    
    223.5012    
    218.3584    
    115.5489    
      2.7263    
     95.0261    
    151.5244    
     79.6377    
    202.9509    
      0.0000    
      0.0000    
    213.2542    
