  11100 12  1   YSAG3    PUC    BMW  .000 U S1 021293 00.01   1        
  PROGRAM LAMBDA-9   VERSION 02.31                                     
  USER BMW DATE & TIME  1993 02 12 10.10 47.55    10.500    295K U     
 AU1 HO  50     0     0 YSAG             .600000 -  .700000 .00010     
 FILE NAME                                ON PC = YSAG3.SP             
 NO_POINTS  =  1001.    pts   DATA_INTV =  .000100 æm                  
 MIN_LAMBDA =   .600000 æm     MIN_DATA =    .21110                    
 MAX_LAMBDA =   .700000 æm     MAX_DATA =    .69460                    
 SCANSPEED  = 15.000000 NM/MIN SLITWIDTH=   .20000 NM                  
  RESP TIME =   .5      sec SENSITIVITY = 5          DATE=93/02/12     
 12:58:45    93/02/12                                                  
  YSAG3                                                                
  This spectra is part of Database LASERS
 Database LASERS was created by Pat Cross working 
 at NASA Langley Research Center, Internal Operations Group,
 Aerospace Electronics Systems Division, Remote Sensing 
 Technology Branch. phone:(757)864-1633   fax:(757)864-7894 
     e-mail p.l.cross@larc.nasa.gov 
     homepage http://aesd.larc.nasa.gov/laser/dbmain.htm
  EOH     (1X,F11.4)                                                   
  1001.         
    319.1873    
    284.1719    
    267.7648    
    285.3680    
    235.0020    
    227.8950    
    137.7682    
    241.4342    
    271.3607    
    181.0540    
    328.2344    
    380.0036    
    357.3177    
    396.7157    
    346.0990    
    348.2407    
    294.6783    
    355.6234    
    373.2680    
     76.8458    
    260.0290    
    256.0047    
    329.1650    
    359.1688    
    299.4441    
    236.8429    
    275.9501    
    241.1204    
    431.9272    
    325.5850    
    299.9265    
    295.8936    
    251.8098    
    439.5067    
    219.1869    
    310.6119    
    241.9002    
    355.0475    
    261.5505    
    174.6567    
    364.5457    
    391.4424    
    331.7350    
    340.0440    
    173.0830    
    224.2544    
    300.1799    
    441.4502    
    387.8071    
    362.1120    
    192.0069    
    289.2925    
    223.8470    
    413.9453    
    634.0877    
    288.5909    
    293.7985    
    419.3754    
    409.1252    
    269.4540    
    345.4355    
    598.9503    
    380.5510    
    376.5059    
    378.6350    
    442.6061    
    244.4747    
    292.6306    
    424.2295    
    370.7618    
    431.5789    
    307.2880    
    281.7755    
    450.3389    
    486.5484    
    432.9346    
    562.2632    
    234.1897    
    504.3578    
    444.5302    
    483.8021    
    411.7038    
    324.5255    
    533.6066    
    501.5977    
    475.8410    
    308.4589    
    295.2483    
    534.9094    
    490.5251    
    474.0772    
    504.0637    
    459.7692    
    400.1772    
    426.9602    
    562.1846    
    579.8440    
    470.3754    
    416.9454    
    598.6449    
    526.2496    
    537.6674    
    299.4939    
    532.6080    
    593.6937    
    524.4547    
    573.0803    
    439.1006    
    441.2186    
    526.7355    
    721.7581    
    624.0678    
    647.9729    
    510.4541    
    540.4166    
    437.5520    
    430.4330    
    749.0861    
    542.6874    
    597.4945    
    596.5054    
    394.8996    
    575.9244    
    655.6762    
    688.9337    
    619.4933    
    649.5737    
    611.3027    
    557.6393    
    538.1052    
    676.6940    
    610.4457    
    479.6488    
    596.0669    
    706.9436    
    467.5099    
    571.4390    
    573.5497    
    603.5242    
    614.9309    
    704.0302    
    650.1722    
    745.6531    
    701.0193    
    749.8712    
    531.7364    
    614.2020    
    771.8016    
    671.1424    
    726.1226    
    728.2300    
    783.3550    
    608.2737    
    678.5739    
    833.4481    
    682.7865    
    604.3260    
    640.4758    
    735.7396    
    737.8447    
    858.6065    
    795.0461    
    772.1942    
    786.7724    
    898.3722    
    672.8055    
    824.3035    
    860.8085    
    841.0123    
    582.2689    
    670.9249    
    784.8895    
    915.1944    
    873.4222    
    859.8780    
    855.7256    
    593.8980    
    691.8314    
    684.6368    
    736.3634    
    685.7390    
    740.5630    
    851.6768    
    925.7531    
    703.4297    
    933.0869    
    913.2466    
    887.1738    
    833.0564    
   1048.4011    
    859.0952    
    839.3488    
    885.1561    
    672.7954    
    951.9640    
    916.4656    
    796.8912    
    823.8821    
    791.7556    
    747.2830    
    771.0952    
   1001.1589    
    865.5210    
    901.9551    
    900.9242    
    996.9728    
    892.6208    
    866.6354    
    831.3551    
    914.5154    
    957.2723    
    978.1610    
    986.5220    
    922.8840    
    934.3514    
   1055.6094    
   1038.8339    
    971.9131    
    952.0955    
    966.7009    
    959.4044    
   1014.7475    
   1016.8370    
   1069.1848    
   1146.9093    
    988.6307    
   1097.4807    
   1090.1251    
    907.4194    
   1040.8721    
    955.2820    
    938.6346    
    950.0868    
   1190.9794    
   1010.5495    
   1125.7158    
   1102.6146    
   1082.6893    
   1109.9332    
    992.8146    
   1117.2515    
   1236.1455    
    989.6905    
   1073.2139    
    959.5081    
   1152.8694    
   1167.5635    
    996.9844    
   1149.6661    
   1120.2762    
   1081.5220    
    927.3477    
   1123.3806    
   1128.6057    
   1055.3638    
   1073.1140    
   1137.9958    
   1140.0769    
   1079.3572    
   1056.3746    
   1180.9479    
   1041.7584    
   1181.9565    
   1070.9562    
   1091.8368    
   1122.1500    
   1105.4015    
   1120.0303    
   1144.0908    
   1284.9257    
   1394.9232    
   1238.5077    
   1152.4019    
   1116.8101    
   1216.3489    
   1136.6505    
   1151.2834    
   1206.8258    
   1215.2008    
   1076.0321    
   1200.4594    
   1092.6959    
   1157.4578    
   1194.0989    
   1149.0527    
   1182.5272    
   1320.2169    
   1274.8746    
   1185.6075    
   1282.1777    
   1331.6765    
   1191.8268    
   1320.0015    
   1350.5612    
   1232.6388    
   1275.6759    
   1230.4866    
   1235.7056    
   1272.4288    
   1274.4998    
   1289.1870    
   1344.9701    
   1296.4817    
   1358.6045    
   1408.2183    
   1477.0488    
   1406.0118    
   1395.3948    
   1378.4496    
   1314.1227    
   1608.7979    
   1559.6531    
   1561.7208    
   1615.0012    
   1585.0435    
   1809.1774    
   1746.6111    
   1716.4412    
   1692.7604    
   1627.4015    
   1680.8163    
   1805.3950    
   1894.9921    
   1978.4644    
   1902.3723    
   2107.0022    
   2105.7837    
   2140.7166    
   2254.9604    
   2379.8596    
   2542.4666    
   2588.2432    
   2725.4446    
   2870.4409    
   2872.5037    
   3146.3599    
   3179.6343    
   3627.6658    
   3725.8997    
   4370.7505    
   5011.2969    
   5642.3823    
   6512.6880    
   7398.4824    
   8829.1094    
  10264.6543    
  12097.2393    
  13819.1797    
  15799.1729    
  17888.2031    
  19518.3164    
  20857.3027    
  21410.7305    
  21072.9629    
  20430.1641    
  19172.4160    
  17406.4902    
  15471.2441    
  13363.0605    
  11691.5107    
  10190.1904    
   8981.0820    
   8013.1665    
   7215.9028    
   6958.8027    
   6726.0107    
   6794.8701    
   7460.8501    
   7927.6108    
   9096.3506    
  10437.1719    
  11442.1006    
  12267.3447    
  12252.6914    
  11368.3965    
  10046.7383    
   8783.2764    
   8003.8716    
   8189.3115    
   8752.3652    
   9943.3408    
  10863.8916    
  11673.9053    
  11822.1641    
  11209.1182    
  10101.9805    
   8822.3496    
   7935.5610    
   6991.1924    
   6712.8472    
   6389.4995    
   6095.7285    
   5877.8940    
   5975.5801    
   5692.1465    
   5654.8799    
   5488.7964    
   5436.4224    
   5345.5361    
   5405.6138    
   5747.7710    
   6076.0381    
   6377.3525    
   6510.2827    
   6582.2290    
   6758.0747    
   6648.2095    
   6493.8555    
   6030.2646    
   5809.6216    
   5258.3931    
   5038.9951    
   4583.4844    
   4541.1104    
   4403.1797    
   4204.4312    
   4217.3716    
   4368.9814    
   4492.2651    
   4501.6797    
   4804.7456    
   4960.9883    
   5133.7261    
   5334.9399    
   5325.4341    
   5354.4307    
   5180.0327    
   5132.5059    
   5043.3711    
   4752.0767    
   4450.5332    
   4496.6973    
   4144.9463    
   4168.6812    
   4381.7163    
   4497.4937    
   4499.5322    
   4764.6577    
   4796.5693    
   4952.4458    
   5419.7324    
   5890.7539    
   6187.8618    
   6489.6128    
   6684.4868    
   6440.6904    
   6004.0918    
   5453.3013    
   4899.3306    
   4157.9136    
   3905.3799    
   4154.7671    
   4009.4370    
   4252.8799    
   4211.4526    
   3951.2024    
   3690.9961    
   3462.1458    
   3044.6265    
   2753.0161    
   2598.2776    
   2474.4966    
   2420.5120    
   2504.9802    
   2490.4958    
   2393.7322    
   2464.8679    
   2361.7002    
   2521.7480    
   2573.4299    
   2387.4731    
   2196.8538    
   2172.9109    
   1913.9453    
   1880.8052    
   1924.4054    
   1977.7251    
   2069.8440    
   2449.7114    
   2941.5771    
   3208.7261    
   3334.3738    
   3271.0596    
   2936.1924    
   2703.5588    
   2450.7527    
   1994.7959    
   1923.1510    
   1586.1345    
   1629.0333    
   1662.5585    
   1636.2335    
   1710.7966    
   1941.7015    
   2020.6345    
   1964.9491    
   2270.2969    
   2501.3809    
   2899.2405    
   3195.9507    
   3469.5723    
   3537.4993    
   3830.1182    
   4235.0361    
   4157.9482    
   4293.2080    
   4251.9175    
   4199.9341    
   4480.8228    
   4200.3823    
   4041.3325    
   3968.6506    
   3765.8562    
   3603.5066    
   3515.2041    
   3486.0596    
   3302.1470    
   3369.3796    
   3323.3254    
   3308.2063    
   3406.4082    
   3591.8281    
   3517.5034    
   3354.0107    
   3559.6741    
   3457.8706    
   3463.3408    
   3225.2458    
   3098.1714    
   3035.9712    
   3044.7371    
   2778.6143    
   2867.3633    
   2742.7512    
   2618.9734    
   2647.4036    
   2563.7078    
   2523.0125    
   2290.1912    
   2334.3928    
   2245.6587    
   2192.7859    
   2047.0693    
   1969.2727    
   1818.9803    
   1805.1979    
   1845.1428    
   1576.9727    
   1852.3340    
   1822.7257    
   1799.4818    
   1681.9731    
   1696.5313    
   1862.3955    
   1864.4072    
   1752.8330    
   2014.5593    
   2077.2576    
   2072.8701    
   2145.3684    
   2089.6875    
   2133.3452    
   2189.9570    
   2185.5339    
   2139.3740    
   2035.8397    
   2114.5500    
   2148.6089    
   2214.8818    
   2088.5793    
   2135.3975    
   2153.4336    
   2136.2083    
   1896.2567    
   1816.1887    
   1620.7776    
   1757.3085    
   1687.2412    
   1595.6484    
   1510.7076    
   1574.7772    
   1698.3934    
   1750.5167    
   1668.0247    
   1858.3120    
   1709.5425    
   1683.4084    
   1880.0988    
   2126.6941    
   1985.3733    
   1823.0916    
   2024.3156    
   1988.2119    
   1942.6865    
   2273.4617    
   2198.3489    
   2082.0718    
   1960.1918    
   1817.1046    
   2135.9399    
   1902.9773    
   1713.4489    
   1693.5938    
   1500.0105    
   1388.0723    
   1313.4714    
   1444.3374    
   1225.9559    
   1173.2557    
   1272.6077    
   1225.8674    
   1200.5066    
   1087.4125    
   1308.0723    
   1383.5184    
   1166.0153    
   1183.1754    
   1182.1392    
    907.1199    
   1131.6167    
   1224.5627    
   1311.8380    
   1271.1475    
   1331.1001    
   1278.1862    
   1344.2587    
   1334.0323    
   1332.9730    
   1331.9158    
   1142.5052    
   1066.0645    
   1146.4945    
   1079.0885    
   1223.1733    
   1365.2683    
   1257.5297    
   1189.7452    
   1182.6561    
   1254.3937    
   1189.6693    
   1401.6963    
   1520.3582    
   1602.5903    
   1595.3068    
   1736.9093    
   1879.5425    
   2058.0195    
   1883.5247    
   1841.6487    
   1997.6185    
   2132.5876    
   2287.7002    
   2308.9165    
   2365.4880    
   2185.0801    
   2321.2974    
   2464.9294    
   2616.1335    
   2667.0337    
   2590.8250    
   2772.4941    
   2836.9480    
   2806.0330    
   2906.9016    
   2995.0007    
   3207.2776    
   3209.2644    
   3332.4666    
   3260.2849    
   2859.4319    
   2858.1233    
   2666.7629    
   2574.4287    
   2582.9048    
   2843.0227    
   2418.8530    
   2709.3223    
   2639.5884    
   2415.1582    
   2378.5984    
   2182.6660    
   2254.6426    
   2234.3276    
   2163.2271    
   2092.4055    
   2075.4421    
   1730.2704    
   1464.5133    
   1335.5415    
   1523.5634    
   1263.7808    
   1118.2111    
   1294.9702    
   1128.1725    
   1166.1947    
   1117.1378    
   1110.1259    
   1019.4301    
    985.6559    
    724.5389    
    909.4151    
   1027.3480    
    951.9456    
    909.4254    
    946.9947    
    789.3303    
    764.8318    
    757.9922    
   1011.3975    
    950.9482    
    858.1906    
    937.1025    
    814.9522    
    799.2627    
    839.5369    
    868.0735    
    926.2402    
    780.6966    
    841.5439    
    899.6142    
    692.8062    
    709.4102    
    772.9467    
    725.0702    
    953.8912    
    679.2958    
    730.9921    
    552.2520    
    653.1146    
    792.6358    
    668.7268    
    688.2158    
    789.7446    
    782.9117    
    823.0695    
    728.2573    
    648.4905    
    726.3493    
    781.0354    
    750.7743    
    732.2622    
    646.6987    
    701.1419    
    673.9412    
    866.3159    
    698.2946    
    706.1016    
    696.3994    
    900.7085    
    767.5460    
    769.5145    
    625.6783    
    735.4338    
    548.4500    
    585.1609    
    671.3524    
    752.0703    
    649.1076    
    738.4764    
    632.7052    
    669.5474    
    785.3005    
    728.8300    
    704.5566    
    642.5354    
    734.7269    
    655.1785    
    744.4919    
    589.5178    
    815.6609    
    657.2289    
    746.5148    
    719.3257    
    683.4597    
    804.9913    
    606.1602    
    541.6588    
    630.3602    
    734.0184    
    701.0535    
    682.6687    
    801.1840    
    663.3685    
    732.1782    
    678.9007    
    487.3356    
    492.1710    
    597.8867    
    637.4529    
    650.9995    
    456.9474    
    768.2549    
    674.2727    
    815.9453    
    562.5403    
    616.4553    
    517.5172    
    582.8337    
    567.4924    
    641.6389    
    577.1727    
    590.6660    
    699.6578    
    652.3632    
    735.5095    
    477.7220    
    597.5682    
    758.8218    
    659.2529    
    589.0205    
    709.5101    
    740.4881    
    655.5070    
    562.2885    
    639.1893    
    511.6176    
    333.7003    
    521.2639    
    445.9000    
    456.4292    
    578.8466    
    641.3188    
    761.9861    
    435.6715    
    483.3577    
    591.4901    
    691.5361    
    702.1678    
    629.0281    
    498.8426    
    477.9086    
    640.6481    
    461.8078    
    469.4712    
    334.7766    
    456.2388    
    472.4656    
    488.7047    
    599.5960    
    633.1984    
    374.8651    
    502.2207    
    469.8869    
    583.4849    
    602.6681    
    467.1718    
    531.9915    
    300.6427    
    665.1421    
    435.0598    
    669.0371    
    722.9324    
    446.5977    
    531.3170    
    556.1612    
    449.5891    
    465.7793    
    544.8231    
    361.6868    
    380.6428    
    504.9349    
    535.4454    
    324.1845    
    470.8496    
    538.4205    
    488.9850    
    436.8460    
    433.1047    
    398.1433    
    473.9686    
    393.5237    
    392.6316    
    459.8780    
    286.2926    
    460.9203    
    321.2018    
    337.2616    
    378.7915    
    577.0583    
    462.1001    
    546.6512    
    502.9700    
    473.6081    
    328.2643    
    483.1758    
    425.4814    
    427.4213    
    514.6114    
    476.7203    
    532.7363    
    540.3759    
    442.7902    
    365.4819    
    517.7034    
    562.3912    
    498.8189    
    232.5349    
    386.4716    
    521.6990    
    452.6213    
    299.2523    
    315.2547    
    336.9020    
    480.2256    
    448.1341    
    399.1406    
    437.8445    
    482.2942    
    572.3928    
    418.1886    
    507.9719    
    450.3521    
    446.6234    
    369.4637    
    475.9859    
    514.8029    
    397.8307    
    428.0077    
    432.7681    
    358.5267    
    445.1164    
    241.7041    
    451.8104    
    442.4315    
    275.5011    
    389.8404    
    313.0166    
    298.1147    
    165.9066    
    470.9893    
    501.2349    
    508.8346    
    403.3577    
    374.3091    
    359.3635    
    229.6109    
    281.8646    
    413.0067    
    341.7960    
    234.5374    
    147.3398    
    263.5356    
    411.3813    
    396.4147    
    364.6013    
    369.3374    
    231.2908    
    160.8356    
    187.7878    
    351.7758    
    320.0588    
    347.2130    
    354.7491    
    286.6626    
    263.4477    
    419.5367    
    281.2614    
    249.6909    
    296.2902    
    147.8603    
    180.3168    
    190.5763    
    164.7307    
    373.1193    
    484.7629    
    228.8665    
    336.8594    
    263.3566    
    223.5052    
    348.2268    
    319.3755    
    240.4042    
    206.1757    
    372.7224    
    327.0641    
    248.0920    
    350.4846    
    332.8284    
     29.7154    
    328.2862    
    177.1455    
    259.6176    
     64.9265    
    119.2628    
    209.7891    
    401.3775    
    163.7362    
    265.5703    
    228.5714    
    445.5295    
    436.2170    
    242.6598    
    202.9496    
     64.0084    
      0.0000    
    297.6196    
    241.1388    
    110.2417    
      7.6680    
    324.7939    
    193.3537    
