  11100 12  1   YSAG1    PUC    BMW  .000 U SI 021293 00.01   1        
  PROGRAM LAMBDA-9   VERSION 02.31                                     
  USER BMW DATE & TIME  1993 02 12 10.07 51.51    10.500    295K U     
 AU1 HO  50     0     0 YSAG            1.750000 - 2.200000 .00020     
 FILE NAME                                ON PC = YSAG1.SP             
 NO_POINTS  =  2251.    pts   DATA_INTV =  .000200 æm                  
 MIN_LAMBDA =  1.750000 æm     MIN_DATA =    .49620                    
 MAX_LAMBDA =  2.200000 æm     MAX_DATA =    .79270                    
 SCANSPEED  = 15.000000 NM/MIN SLITWIDTH=   .00000 æm                  
  RESP TIME =   .5      sec SENSITIVITY = 5          DATE=93/02/12     
 09:54:23    93/02/12                                                  
  YSAG1                                                                
  This spectra is part of Database LASERS
 Database LASERS was created by Pat Cross working 
 at NASA Langley Research Center, Internal Operations Group,
 Aerospace Electronics Systems Division, Remote Sensing 
 Technology Branch. phone:(757)864-1633   fax:(757)864-7894 
     e-mail p.l.cross@larc.nasa.gov 
     homepage http://aesd.larc.nasa.gov/laser/dbmain.htm
  EOH     (1X,F11.4)                                                   
  2251.         
    243.5604    
    228.8491    
    243.9570    
    306.4064    
    279.1889    
    301.8159    
    307.0011    
    247.4347    
    222.7864    
    215.5356    
    178.5400    
    215.9321    
    248.4259    
    203.9230    
    233.9093    
    152.3006    
    103.0878    
    232.0208    
    160.3176    
    167.9410    
    133.5118    
     76.9576    
     72.2295    
    151.4122    
    176.3601    
    191.4247    
    196.5800    
    224.0689    
    293.9107    
    291.6168    
    247.0204    
    282.0495    
    200.2487    
    163.2901    
    200.6450    
    119.1941    
    141.6247    
    181.4133    
    146.9660    
    179.3323    
    162.2021    
    211.9527    
    232.0064    
    212.3489    
    200.1464    
    240.0521    
    175.7672    
    228.0315    
    186.0700    
    176.3615    
    216.2155    
    268.5884    
    181.9076    
    244.1218    
    274.1600    
    244.5179    
    282.0231    
    197.7644    
    123.7504    
    146.1808    
    153.7969    
    171.3120    
    127.0120    
    119.8026    
    176.8562    
     85.6744    
    117.9297    
    251.8653    
    172.6983    
    237.3542    
    249.9738    
    128.7943    
    185.8685    
    215.8095    
    171.4111    
    139.4644    
    117.4416    
     85.5879    
     93.1776    
     90.9109    
    147.8686    
    123.3667    
    130.9722    
    160.8230    
    185.7674    
    171.1139    
    278.0076    
    268.2549    
    241.1159    
    313.4688    
    283.7774    
    271.5342    
    276.7068    
    232.1744    
    219.9668    
    235.0530    
    158.4514    
    255.3189    
    163.7921    
    159.0452    
    191.4113    
    102.6592    
    127.5234    
    127.7213    
      0.0006    
    110.8472    
    133.2530    
     86.5989    
    178.1411    
     77.1457    
     92.1197    
    250.6361    
    173.9830    
    211.3279    
    263.6530    
    157.2663    
    159.9365    
    249.3389    
    187.5449    
    284.5383    
    182.9906    
    148.5686    
    141.3566    
    129.2116    
    134.3453    
    109.8735    
     85.4337    
    167.0583    
    206.8606    
    167.4540    
    276.7638    
    291.8902    
    316.9930    
    297.2635    
    222.9201    
    270.2935    
    223.3157    
    131.9808    
    107.5140    
    152.1291    
     61.1377    
     95.7884    
     88.5984    
      2.8122    
    155.5890    
     76.8840    
     42.6644    
    168.5410    
     60.2608    
    181.3017    
    231.0455    
    213.8878    
    278.6289    
    268.8825    
    177.3436    
    192.3870    
    232.2318    
    217.5529    
    247.5154    
    163.4981    
    193.3755    
    144.1316    
     65.4878    
    203.8727    
    154.6031    
     95.6073    
    259.0294    
    142.8486    
    192.4830    
    222.4029    
    145.9108    
    190.6007    
    178.4284    
    183.5737    
    196.1430    
    216.1539    
    119.9580    
    209.1172    
    169.7244    
    160.0373    
    197.3289    
    180.2072    
    177.9330    
    242.5298    
    208.0234    
    252.8523    
    181.1953    
     99.9555    
    213.7686    
     92.9648    
    167.1535    
    157.4689    
    103.4066    
    140.5830    
    214.9541    
    195.3436    
    178.2264    
    183.3688    
    183.5664    
    255.6186    
    243.4090    
    228.7266    
    278.5670    
    226.6440    
    187.2254    
    115.8291    
     98.7857    
    177.9269    
    101.6433    
     77.2335    
    131.6068    
    114.5500    
    136.9353    
    250.9387    
    211.4736    
    216.6252    
    273.8766    
    239.3249    
    244.4836    
    314.2612    
    244.8786    
    312.1664    
    222.9615    
    173.6725    
    225.8347    
    146.9041    
     90.4299    
    181.8770    
    184.5472    
    204.5347    
    194.8346    
    150.5571    
    217.5052    
    230.0903    
    195.6244    
    235.4417    
    200.9667    
    169.0252    
    176.6344    
    132.4030    
    219.0848    
    169.8149    
    167.5419    
    197.4013    
    222.3516    
    178.0163    
    225.2240    
    203.1384    
    225.6188    
    287.8484    
    226.0136    
    255.9603    
    266.0849    
    221.6511    
    211.9444    
    246.8277    
    197.4935    
    262.1083    
    170.7002    
    230.2663    
    317.3780    
    265.3786    
    248.2093    
    340.3827    
    241.1662    
    278.5832    
    271.3311    
    236.8018    
    222.1346    
    138.3244    
    116.3454    
    136.2534    
    178.4027    
    210.7447    
    220.8435    
    213.6146    
    248.4933    
    328.2006    
    335.8688    
    318.6381    
    291.4806    
    219.7484    
    165.5590    
    215.1929    
    235.1994    
    245.3098    
    225.6861    
    255.6225    
    186.5019    
    268.4225    
    271.1006    
    311.0536    
    226.8696    
    170.1981    
    264.4450    
    277.0525    
    197.9673    
    178.3950    
    181.0627    
    243.1149    
    322.7806    
    298.1086    
    407.9746    
    305.9603    
    378.3974    
    388.5804    
    336.4100    
    356.5397    
    279.6164    
    165.9486    
    210.6208    
    282.6913    
    287.8546    
    270.6738    
    194.1015    
    253.7060    
    273.7474    
    288.8405    
    286.5537    
    256.9745    
    140.9894    
    324.4328    
    175.9170    
    255.2833    
    277.8055    
    225.9500    
    290.6149    
    387.9239    
    405.6039    
    353.4006    
    318.7440    
    256.8604    
    284.3483    
    267.1742    
    309.5858    
    324.7042    
    215.7467    
    282.8508    
    297.9478    
    305.6007    
    333.1562    
    323.4001    
    291.2848    
    351.1777    
    353.8651    
    269.5393    
    344.2956    
    309.6618    
    304.8888    
    300.1157    
    337.6150    
    362.7218    
    243.6529    
    295.9365    
    368.2980    
    328.6458    
    241.9639    
    234.7328    
    257.2245    
    262.3786    
    304.7681    
    339.7824    
    325.0504    
    322.7599    
    288.1714    
    382.9357    
    340.7675    
    380.8347    
    291.4424    
    237.0970    
    274.4652    
    344.2423    
    267.4195    
    344.6363    
    290.1414    
    272.9694    
    357.6797    
    310.6024    
    310.7994    
    375.7168    
    326.1087    
    301.4526    
    383.7894    
    264.6269    
    321.9239    
    351.9790    
    307.4048    
    394.7547    
    424.9233    
    420.1222    
    437.8203    
    458.0387    
    410.7193    
    463.4405    
    383.6579    
    361.4216    
    359.1271    
    329.4566    
    344.5821    
    270.2572    
    265.4970    
    375.0622    
    352.8376    
    380.4431    
    515.7656    
    460.7953    
    586.6033    
    624.6459    
    592.0381    
    706.0287    
    749.3912    
    716.5706    
    785.4068    
    729.6558    
    803.6365    
    824.2382    
    842.3069    
    794.0328    
    924.6148    
    819.9230    
    986.6757    
   1015.2039    
    974.2064    
   1106.0250    
   1028.6868    
   1070.1968    
   1176.6666    
   1197.6696    
   1255.1997    
   1320.7579    
   1320.9547    
   1370.9771    
   1334.4465    
   1248.3556    
   1355.8181    
   1214.8625    
   1217.6642    
   1264.8021    
   1327.7668    
   1252.1442    
   1283.6785    
   1278.6495    
   1276.2332    
   1289.4958    
   1253.1281    
   1263.7649    
   1139.0597    
   1173.0029    
   1142.0459    
   1085.2601    
   1121.7000    
   1108.9447    
    992.9727    
   1016.3472    
   1052.6530    
   1055.4320    
   1078.8804    
    991.3839    
    971.0049    
   1007.2229    
    981.6833    
    930.5102    
    912.7605    
    828.5806    
    831.3276    
    841.7336    
    740.0845    
    890.6954    
    776.0617    
    837.4157    
    896.4044    
    891.4821    
    984.0435    
    955.9700    
    935.6326    
   1028.4060    
    979.6862    
    956.7566    
    972.3676    
    882.8200    
    906.0527    
    949.8407    
    885.9686    
    896.4019    
    940.1649    
    774.3179    
    850.9707    
    884.3930    
    866.6914    
    869.4443    
    882.4245    
    890.2957    
    818.9809    
    821.7273    
    860.2057    
    934.6323    
    812.1215    
    873.5722    
    945.4836    
    856.0791    
    899.7441    
    915.3053    
    928.3162    
   1015.8747    
   1016.0713    
   1065.2638    
   1047.3948    
   1052.7505    
   1063.2711    
   1089.3016    
   1043.0216    
   1110.3877    
   1102.8221    
   1103.0187    
   1290.3914    
   1369.1232    
   1369.3197    
   1453.6479    
   1409.1028    
   1493.6041    
   1602.3652    
   1599.9060    
   1629.3311    
   1592.3357    
   1589.8779    
   1645.8833    
   1611.5120    
   1710.2566    
   1683.7686    
   1678.6317    
   1644.2040    
   1753.8153    
   1604.7230    
   1727.4637    
   1716.9727    
   1663.8225    
   1754.7976    
   1736.2688    
   1755.1904    
   1817.0435    
   1750.2322    
   1747.7527    
   1857.9512    
   1774.9163    
   1831.4562    
   1839.7148    
   1650.0089    
   1767.6670    
   1770.5419    
   1749.3241    
   1827.2606    
   1840.8933    
   1913.8053    
   1954.5201    
   2017.0131    
   2136.9536    
   2180.8818    
   2241.3733    
   2445.7905    
   2588.0200    
   2591.0125    
   2770.9839    
   2924.1968    
   3055.7168    
   3257.5085    
   3359.3074    
   3593.7954    
   3650.0605    
   3828.4133    
   4038.5847    
   4217.5771    
   4416.7144    
   4692.7202    
   4761.7148    
   4957.1426    
   5241.1387    
   5431.8281    
   5510.0630    
   5799.1626    
   5852.3618    
   6153.4751    
   6234.7246    
   6190.9727    
   6285.9517    
   6296.3311    
   6265.9932    
   6286.5405    
   6239.2876    
   6114.6470    
   6064.4653    
   5841.2568    
   5663.2822    
   5486.9590    
   5222.1973    
   4954.7402    
   4831.9365    
   4582.2832    
   4409.5151    
   4471.3037    
   4229.3594    
   3990.4548    
   3888.6646    
   3858.9666    
   3766.7932    
   3618.9426    
   3475.1616    
   3425.6582    
   3182.1726    
   3269.0398    
   3139.3760    
   3107.9626    
   3010.7861    
   3062.4702    
   3025.4675    
   3068.5930    
   3040.1594    
   3155.1338    
   3166.8462    
   3126.7668    
   3285.6826    
   3317.7820    
   3387.7705    
   3443.4019    
   3434.8347    
   3546.3345    
   3691.0225    
   3703.0608    
   3795.2971    
   3890.9702    
   3978.1079    
   4038.4949    
   4093.0266    
   4281.5742    
   4336.8037    
   4398.3345    
   4497.0791    
   4695.9180    
   4746.0986    
   4856.0972    
   5023.7822    
   5036.6787    
   5199.5518    
   5308.9785    
   5312.3970    
   5380.3838    
   5438.8794    
   5507.3169    
   5572.7329    
   5605.6245    
   5654.9658    
   5701.1465    
   5701.3428    
   5645.7148    
   5767.6221    
   5623.1680    
   5580.8369    
   5525.5630    
   5324.8120    
   5337.9087    
   5228.7271    
   5056.4873    
   4986.8765    
   4835.6514    
   4879.8877    
   4738.8843    
   4583.4106    
   4518.6035    
   4371.0464    
   4322.2466    
   4353.0508    
   4231.1064    
   4149.2998    
   4149.4961    
   3971.7170    
   3888.0293    
   3837.4761    
   3766.2534    
   3627.3608    
   3501.1895    
   3396.2305    
   3422.6616    
   3347.1675    
   3237.2788    
   3202.8420    
   3059.4119    
   3071.0586    
   3039.7825    
   2923.1296    
   2946.0693    
   2903.6433    
   2883.9819    
   2958.0393    
   2904.2312    
   2873.2317    
   2822.4907    
   2774.7046    
   2741.1025    
   2825.9053    
   2738.6819    
   2820.6458    
   2770.0481    
   2789.9810    
   2911.8691    
   2875.1912    
   2810.3259    
   2725.9905    
   2656.0293    
   2633.8291    
   2712.5271    
   2567.1917    
   2623.2285    
   2612.2444    
   2637.6072    
   2640.6018    
   2621.2175    
   2649.3914    
   2621.6091    
   2504.7417    
   2496.6038    
   2558.0017    
   2499.7737    
   2450.0339    
   2400.4250    
   2386.8086    
   2304.3452    
   2315.5420    
   2299.2383    
   2335.2002    
   2296.8828    
   2261.3848    
   2223.2170    
   2193.3237    
   2158.0217    
   2155.4893    
   2147.5042    
   2125.8997    
   2177.9114    
   2172.6455    
   2134.6589    
   2123.9592    
   2137.7759    
   2167.9700    
   2154.5237    
   2119.2979    
   2171.2874    
   2149.6580    
   2141.6763    
   2212.8625    
   2169.3408    
   2191.3835    
   2156.0901    
   2230.0671    
   2331.8364    
   2263.3408    
   2365.2861    
   2401.3618    
   2401.5576    
   2443.2351    
   2540.5786    
   2521.3054    
   2644.2083    
   2591.3206    
   2666.9961    
   2779.5676    
   2765.6794    
   2867.5081    
   2788.6096    
   2859.4097    
   2973.1196    
   2959.0884    
   2976.3582    
   3096.4939    
   3025.2056    
   3122.6863    
   3246.6335    
   3255.4929    
   3380.3064    
   3494.2366    
   3558.8916    
   3816.1523    
   3864.0034    
   4071.0942    
   4161.9507    
   4219.7871    
   4400.0967    
   4653.4819    
   4706.5918    
   5008.3901    
   5132.4883    
   5305.5835    
   5607.2793    
   5897.2275    
   6020.5801    
   6306.7559    
   6381.6748    
   6618.1499    
   6885.5278    
   7153.1597    
   7331.3716    
   7464.3794    
   7591.0654    
   7850.4678    
   7858.0151    
   7847.1826    
   7906.2686    
   7792.5278    
   7796.3892    
   7635.9976    
   7448.1396    
   7333.5234    
   7148.6177    
   6797.8247    
   6624.9224    
   6450.1626    
   6081.7373    
   5988.3818    
   5704.0820    
   5498.5327    
   5353.1152    
   5106.7061    
   4869.7305    
   4729.0303    
   4422.8716    
   4386.2676    
   4316.1250    
   4212.8184    
   4234.2773    
   4225.3574    
   4167.9194    
   4304.8965    
   4375.3848    
   4452.2803    
   4529.4858    
   4656.6563    
   4831.6582    
   5157.6235    
   5421.2134    
   5737.7622    
   5896.4692    
   6224.4463    
   6768.7505    
   7122.8237    
   7254.3218    
   7653.9434    
   7807.4863    
   8252.7383    
   8525.0479    
   8578.6084    
   8647.6367    
   8686.1816    
   8678.7012    
   8602.3076    
   8325.5381    
   8101.0698    
   7904.9902    
   7399.8374    
   6991.8413    
   6761.6606    
   6445.3066    
   6140.8423    
   5900.7700    
   5647.3237    
   5413.3643    
   5278.2856    
   5051.9683    
   4928.8779    
   4728.4717    
   4641.5640    
   4530.3516    
   4478.1616    
   4315.9624    
   4206.6362    
   4110.0049    
   4101.1479    
   3996.0500    
   3912.4260    
   3927.5625    
   3832.3408    
   3637.2344    
   3782.2356    
   3826.9785    
   3847.9988    
   3863.0840    
   3809.7332    
   3962.0361    
   4094.4451    
   4100.6714    
   4194.6001    
   4267.6831    
   4359.3789    
   4568.6226    
   4550.2788    
   4593.7568    
   4569.2085    
   4479.9707    
   4557.2383    
   4585.2554    
   4495.9453    
   4557.8242    
   4524.0693    
   4493.4517    
   4657.5200    
   4577.1489    
   4664.1216    
   4583.7241    
   4605.5835    
   4655.3911    
   4702.2148    
   4689.9648    
   4868.2783    
   4855.9194    
   4928.4146    
   5016.9976    
   4900.4805    
   4888.1011    
   4913.4546    
   4825.7427    
   4660.6450    
   4701.2505    
   4595.9365    
   4543.5942    
   4322.8735    
   4277.3672    
   4277.5625    
   4262.5469    
   4108.2886    
   4057.2766    
   3889.7549    
   3937.7195    
   3908.0457    
   3768.4792    
   3739.0703    
   3680.1929    
   3624.4390    
   3792.9775    
   3704.3857    
   3784.4692    
   3790.5964    
   3604.8438    
   3599.1663    
   3605.2341    
   3514.5942    
   3523.5608    
   3383.8933    
   3268.3145    
   3288.7192    
   3225.4702    
   3182.5286    
   3133.9541    
   3011.3440    
   3034.3271    
   3020.2761    
   2858.8218    
   2904.2532    
   2760.6294    
   2679.5261    
   2688.1152    
   2626.8391    
   2640.9880    
   2649.5598    
   2560.5913    
   2549.6699    
   2572.1028    
   2513.9763    
   2580.8406    
   2445.1680    
   2285.7834    
   2354.5989    
   2245.1211    
   2193.4409    
   2136.4648    
   1947.3174    
   1928.6815    
   1939.6351    
   1795.1030    
   1800.6396    
   1784.8162    
   1691.8430    
   1715.9514    
   1639.1986    
   1644.6898    
   1647.5344    
   1486.8110    
   1437.1599    
   1487.2012    
   1364.3304    
   1406.3302    
   1362.1104    
   1304.9800    
   1383.3893    
   1347.0448    
   1415.1541    
   1407.5006    
   1342.4148    
   1373.9174    
   1413.3187    
   1311.7455    
   1416.3243    
   1361.6461    
   1270.7356    
   1343.7802    
   1338.7631    
   1268.7235    
   1378.2843    
   1357.5991    
   1394.3488    
   1376.2577    
   1293.0819    
   1280.2825    
   1270.0886    
   1161.5438    
   1345.9253    
   1260.2905    
   1167.2922    
   1245.1171    
   1144.4557    
   1147.2306    
   1227.5603    
   1137.3048    
   1106.5862    
   1127.3846    
   1035.0404    
   1066.0323    
   1061.0902    
    958.8506    
   1056.3461    
   1041.1438    
    969.6544    
   1074.9087    
   1018.6584    
   1041.9236    
   1047.2500    
    919.5911    
   1019.4382    
    937.8289    
    836.2596    
    872.0099    
    887.4628    
    880.0273    
    885.3099    
    822.0169    
    916.2482    
    939.3882    
    832.7457    
    848.1660    
    980.8304    
    973.3579    
    945.4645    
    932.9067    
    912.7131    
   1022.7516    
    999.9027    
   1007.7768    
    941.5320    
    972.3614    
   1046.7963    
   1064.9543    
    937.2095    
   1057.6437    
    963.1198    
    912.3092    
    983.9484    
    897.4247    
    831.5698    
    852.0634    
    804.0841    
    794.1525    
    852.6479    
    898.5937    
    901.3339    
    810.1243    
    853.4272    
    968.2053    
    861.4342    
    897.2176    
    950.9203    
    798.6322    
    852.0573    
    877.6519    
    857.5250    
    845.0284    
    792.0142    
    792.2090    
    914.2430    
    873.7386    
    929.9186    
   1004.1642    
    902.2950    
   1009.6707    
    979.1801    
    930.8925    
    951.4866    
    903.2688    
    916.1907    
    918.9326    
    853.0247    
    921.8695    
    927.1586    
    965.6095    
    965.8043    
   1068.3922    
   1014.7622    
    999.6068    
    969.1367    
    913.2413    
    989.9639    
    931.4596    
    941.8499    
    936.9454    
    777.2358    
    833.1181    
    891.7052    
    760.1354    
    823.5649    
    770.6284    
    785.9879    
    836.8218    
    831.9458    
    844.8184    
    855.1611    
    771.7966    
    855.5505    
    919.2923    
    833.1139    
    952.8096    
    963.2094    
    861.5991    
    955.9448    
    956.1394    
    869.7994    
    826.8745    
    786.5739    
    819.6647    
    860.4232    
    719.0186    
    696.5532    
    709.3336    
    714.5654    
    853.7841    
    783.0758    
    785.7986    
    910.2635    
    854.5626    
    799.0251    
    839.7365    
    834.8611    
    837.5905    
    766.9482    
    694.0521    
    757.2391    
    792.8004    
    661.9626    
    694.8305    
    652.3093    
    627.4218    
    771.0307    
    647.8731    
    600.4528    
    585.6345    
    553.3443    
    606.0425    
    613.7491    
    598.9224    
    654.2551    
    619.3436    
    629.5620    
    692.5247    
    695.2332    
    733.1934    
    683.0513    
    570.4702    
    643.2654    
    663.5369    
    563.5594    
    526.3246    
    548.9685    
    496.8243    
    521.9239    
    412.7772    
    460.1105    
    475.2146    
    443.1192    
    502.9692    
    543.0390    
    543.2335    
    613.4099    
    508.7263    
    459.1822    
    583.9690    
    516.7831    
    531.9301    
    519.6623    
    417.9785    
    376.0901    
    391.1264    
    364.1187    
    384.0930    
    307.7552    
    327.6706    
    429.2554    
    362.6196    
    407.3410    
    410.0126    
    370.6166    
    358.4570    
    435.3811    
    381.0898    
    443.2116    
    383.9523    
    352.0203    
    433.8728    
    342.5346    
    449.1475    
    377.5060    
    352.9924    
    385.3133    
    345.9737    
    304.2541    
    378.4780    
    307.1063    
    336.8821    
    346.9457    
    376.7828    
    379.4499    
    382.1173    
    276.2775    
    323.2512    
    372.8118    
    306.3923    
    341.0976    
    328.9603    
    292.2046    
    344.1486    
    336.9417    
    305.0954    
    406.5224    
    369.6179    
    424.2484    
    526.3091    
    486.6855    
    400.0688    
    429.9830    
    410.3589    
    353.6904    
    331.6811    
    336.8068    
    324.6728    
    265.8051    
    293.0471    
    389.4478    
    359.9892    
    392.3100    
    375.1985    
    360.5721    
    439.9459    
    519.6502    
    447.7742    
    465.3398    
    435.7639    
    465.7283    
    508.1757    
    389.3074    
    468.7945    
    436.7352    
    352.8347    
    459.4474    
    464.6052    
    487.1551    
    484.8638    
    442.8600    
    423.2281    
    545.1799    
    550.3613    
    555.5425    
    590.6863    
    628.3983    
    676.2214    
    686.4581    
    654.0334    
    694.3815    
    666.9612    
    682.2123    
    735.2012    
    700.1827    
    607.6277    
    670.4415    
    575.5341    
    618.2143    
    613.4058    
    671.2183    
    681.4494    
    659.0657    
    644.2227    
    765.0505    
    760.2036    
    785.6194    
    806.0156    
    813.7906    
    917.8979    
    913.0092    
    877.6669    
    903.2372    
    959.3792    
    908.7057    
    919.0629    
   1054.4281    
   1000.9492    
   1077.8649    
   1108.8353    
   1150.1420    
   1232.8268    
   1313.2755    
   1360.2250    
   1344.8218    
   1347.6135    
   1446.8252    
   1567.5740    
   1486.4413    
   1589.0067    
   1565.5270    
   1597.2922    
   1679.2863    
   1571.3683    
   1653.2491    
   1582.2773    
   1685.3531    
   1656.4728    
   1582.8596    
   1564.6465    
   1643.8535    
   1483.7286    
   1457.7695    
   1481.4994    
   1481.6935    
   1434.8435    
   1401.1339    
   1430.0123    
   1500.7976    
   1414.7496    
   1386.2830    
   1303.3450    
   1329.4785    
   1257.1302    
   1252.1523    
   1198.1350    
   1278.4094    
   1226.9005    
   1162.6617    
   1124.3002    
   1098.8342    
   1140.1021    
   1160.8646    
   1127.6447    
   1127.8386    
   1125.4642    
   1112.8247    
   1082.2507    
   1090.1317    
   1023.8058    
   1059.7889    
   1052.3085    
   1042.2739    
   1029.6913    
    996.7025    
   1001.9985    
    976.7007    
   1030.4672    
    982.1837    
   1069.2140    
    985.1204    
   1041.4646    
   1013.5628    
    985.7023    
   1021.6088    
    963.1666    
    953.1813    
   1032.4069    
    917.9854    
    938.5052    
    959.0468    
    893.1910    
    850.3226    
    926.5743    
    876.0294    
    835.7281    
    861.2222    
    841.1739    
    889.4779    
    887.1363    
    945.7225    
    984.0960    
    882.6479    
    946.3043    
   1007.6228    
    939.0657    
    959.6045    
   1000.5536    
    993.0981    
    955.0987    
    927.3317    
    899.6058    
    909.9477    
    834.1632    
    915.4108    
    854.7825    
    849.9156    
    893.1619    
    956.8436    
    923.9964    
   1003.0740    
   1087.5991    
   1064.7568    
   1087.9868    
   1080.4989    
   1116.5686    
   1127.0254    
   1158.0411    
   1042.9102    
   1135.3073    
   1094.4677    
   1033.2758    
   1069.2540    
   1036.2161    
   1100.3667    
   1018.7343    
   1031.6909    
   1072.7805    
    983.6271    
    996.5598    
   1093.8436    
   1022.4493    
   1107.0438    
   1125.1888    
   1174.1936    
   1225.9016    
   1118.0751    
   1197.9386    
   1236.8029    
   1141.7515    
   1226.8705    
   1242.5454    
   1155.1764    
   1199.1013    
   1147.8573    
   1053.2543    
   1132.8394    
   1074.0988    
   1007.8884    
   1051.4734    
   1008.2759    
   1064.6426    
   1036.7291    
    980.8328    
   1006.5011    
   1050.0802    
   1009.4384    
   1076.0361    
   1081.3468    
   1076.4236    
   1127.8544    
   1110.0992    
   1130.8077    
   1136.1328    
   1026.2910    
   1034.1407    
   1031.7831    
   1106.1371    
   1085.8436    
    996.6660    
   1001.9547    
   1022.5451    
    936.2041    
   1051.0132    
    926.4366    
    893.6655    
    871.0712    
    929.5562    
    952.6094    
    891.9064    
    914.9139    
    907.5004    
    994.0887    
   1004.4725    
   1040.3739    
   1043.1211    
    999.9584    
    997.6043    
   1028.3889    
    947.1157    
    952.3915    
    881.5690    
    914.7010    
    846.5472    
    851.7946    
    841.8806    
    799.1773    
    786.7719    
    829.8354    
    933.8163    
    883.3116    
   1015.6036    
    903.9611    
    959.9907    
    970.3540    
    934.9780    
    947.8680    
    894.7960    
    887.3911    
    824.3917    
    842.2581    
    850.0320    
    835.0694    
    784.8330    
    714.6476    
    962.3137    
    921.8840    
    939.8398    
    848.8599    
    849.0535    
    932.8063    
   1004.1866    
    973.8384    
    961.3217    
    974.2255    
    903.3460    
    977.1562    
   1043.5939    
    977.5433    
   1028.6725    
    977.9303    
    940.0106    
   1080.3268    
   1009.0568    
    955.8267    
    983.9847    
    918.1476    
   1014.9259    
    964.2246    
    966.9586    
   1035.9031    
    967.3455    
    995.5186    
    988.0775    
    942.5261    
    940.1810    
   1047.2705    
    897.4714    
   1027.2499    
   1106.6431    
   1083.8097    
   1140.3422    
   1091.8691    
   1133.0370    
   1218.0167    
   1189.9056    
   1202.9601    
   1177.4417    
   1198.2025    
   1237.0178    
   1237.2112    
   1193.6382    
   1229.8674    
   1194.0250    
   1217.3774    
   1263.9719    
   1217.7643    
   1228.2579    
   1267.1322    
   1226.0699    
   1290.7660    
   1329.7664    
   1368.8445    
   1428.8182    
   1257.9701    
   1283.9814    
   1346.2778    
   1341.2888    
   1370.0049    
   1264.0985    
   1207.6023    
   1236.1194    
   1339.6644    
   1190.1803    
   1234.1224    
   1242.0465    
   1206.1893    
   1245.0114    
   1294.2471    
   1237.6664    
   1328.2611    
   1287.0756    
   1315.7080    
   1336.6097    
   1290.2382    
   1267.1924    
   1246.7516    
   1216.0355    
   1231.6780    
   1193.2740    
   1170.3459    
   1209.0897    
   1139.9496    
   1163.2255    
   1274.0938    
   1209.8630    
   1243.5306    
   1202.5336    
   1223.3109    
   1360.4354    
   1282.9989    
   1254.8087    
   1285.9685    
   1255.1953    
   1221.8962    
   1340.8628    
   1403.3213    
   1387.9285    
   1377.7385    
   1398.7039    
   1552.7925    
   1490.2334    
   1566.2773    
   1637.3634    
   1650.7145    
   1727.3976    
   1788.4762    
   1651.2943    
   1810.0861    
   1839.4996    
   1778.6464    
   1853.1819    
   1853.3752    
   1789.8290    
   1885.7124    
   1891.2352    
   1894.0945    
   1961.0513    
   1950.5464    
   1969.4648    
   1908.2021    
   1887.0651    
   1970.0446    
   2007.7434    
   1965.0797    
   1951.8989    
   1858.7413    
   1866.9178    
   1896.4132    
   1787.6191    
   1880.8116    
   1788.0056    
   1711.4844    
   1706.3973    
   1709.2305    
   1609.3812    
   1751.8971    
   1533.7709    
   1445.2482    
   1599.6534    
   1552.6666    
   1573.8130    
   1568.7661    
   1589.9314    
   1629.5093    
   1735.1261    
   1756.4749    
   1796.3978    
   1754.2151    
   1727.9719    
   1828.8210    
   1665.0599    
   1728.5513    
   1726.1039    
   1665.6394    
   1639.5204    
   1671.2919    
   1748.0187    
   1790.5701    
   1695.5909    
   1730.0963    
   1822.9800    
   1847.0798    
   1903.1737    
   1924.7062    
   1895.5643    
   2021.4143    
   2013.5623    
   1965.5538    
   2011.2668    
   2014.1415    
   1968.8065    
   2009.1650    
   1942.4634    
   1918.6324    
   1980.2815    
   1852.4418    
   1889.8892    
   1860.8047    
   1834.4213    
   1818.6849    
   1802.9635    
   1797.8552    
   1869.7500    
   1808.8455    
   1785.1851    
   1743.0435    
   1748.5240    
   1788.4137    
   1801.8562    
   1778.2058    
   1836.7379    
   1773.2963    
   1678.4358    
   1778.9779    
   1699.9043    
   1702.7346    
   1763.6763    
   1632.0515    
   1684.8632    
   1727.2544    
   1645.7720    
   1719.7213    
   1672.4666    
   1680.5590    
   1704.4717    
   1762.7692    
   1747.0969    
   1794.9222    
   1789.8176    
   1819.1699    
   1829.9775    
   1814.2500    
   1910.1599    
   1875.7335    
   1854.6528    
   1950.7635    
   1964.3173    
   1969.8563    
   2063.8613    
   1908.8466    
   1986.4854    
   2010.7765    
   2016.3298    
   1971.0140    
   1923.1406    
   1899.3466    
   1928.8621    
   1881.0962    
   1836.1058    
   1860.2054    
   1743.8011    
   1717.5944    
   1704.6003    
   1736.4563    
   1699.7150    
   1668.3062    
   1650.0892    
   1605.6469    
   1684.6799    
   1585.0635    
   1606.2256    
   1452.3121    
   1366.8523    
   1400.7411    
   1240.7601    
   1307.9590    
   1228.2881    
   1108.0314    
   1121.0010    
   1121.1938    
   1108.6100    
   1126.6938    
   1068.1641    
   1050.5210    
   1124.7151    
   1053.4541    
   1074.0355    
   1000.4248    
    982.8459    
   1008.4319    
    988.3069    
    940.3320    
    864.7194    
    849.7861    
    812.2197    
    827.5072    
    795.0095    
    868.2045    
    797.9068    
    762.9519    
    853.6563    
    861.4109    
    791.1412    
    844.1565    
    763.9160    
    681.5157    
    796.9377    
    726.9076    
    752.1511    
    764.8801    
    625.1270    
    722.6735    
    715.3601    
    673.0710    
    773.3700    
    715.9385    
    698.6277    
    768.9312    
    694.0144    
    759.2849    
    834.8448    
    687.0983    
    654.8489    
    702.4756    
    675.1915    
    818.1965    
    695.5566    
    643.3489    
    748.4870    
    771.2443    
    867.0017    
    869.7162    
    839.6741    
    915.5433    
   1009.4863    
    850.3253    
   1002.2534    
   1010.0645    
    934.2080    
   1089.3531    
    997.9461    
   1005.7551    
   1011.0280    
    975.6937    
    925.2472    
    976.0792    
   1001.6413    
   1111.3107    
    951.3201    
    936.3278    
   1048.1631    
    977.2354    
   1025.6584    
   1086.9513    
    960.0747    
    970.4005    
   1026.4292    
    935.3391    
   1006.4928    
    958.5049    
    908.1121    
    976.6266    
    994.5721    
    974.4767    
   1038.1403    
    964.7261    
    982.6598    
    947.3868    
    836.5434    
    834.2211    
    791.6909    
    741.7456    
    751.9556    
    737.1249    
    689.8199    
    707.4977    
    645.3168    
    660.4600    
    625.7852    
    568.8346    
    653.5611    
    621.3879    
    584.3026    
    661.6157    
    609.5311    
    602.2675    
    637.2819    
    577.8190    
    501.2307    
    605.5234    
    541.2063    
    573.6257    
    541.5914    
    521.9785    
    569.2425    
    581.8406    
    549.7938    
    621.9814    
    545.2244    
    560.2858    
    652.4304    
    533.4193    
    573.2640    
    653.0081    
    487.0172    
    521.8147    
    546.7648    
    608.9896    
    586.8265    
    589.5020    
    532.6763    
    597.3365    
    575.1895    
    562.9814    
    578.0544    
    466.9229    
    452.3201    
    511.7598    
    356.8217    
    472.6262    
    421.0758    
    433.5760    
    389.5002    
    409.3537    
    431.6910    
    510.8271    
    409.9312    
    466.7660    
    511.4046    
    462.2196    
    568.7338    
    499.6249    
    472.6626    
    576.7510    
    522.4507    
    431.3462    
    404.4806    
    360.4790    
    299.4605    
    375.5848    
    334.0992    
    363.7018    
    317.3495    
    297.9795    
    329.9724    
    298.3644    
    301.0001    
    347.6954    
    203.8545    
    225.9485    
    296.8821    
    240.9474    
    197.3298    
    163.5174    
    202.5783    
    268.5397    
    258.9739    
    234.7935    
    278.8801    
    237.6147    
    223.1953    
    311.2211    
    250.3752    
    262.7602    
    321.5828    
    219.2901    
    153.8897    
    236.7175    
    195.5473    
    227.3616    
    176.4979    
    213.1453    
    286.4578    
    272.0028    
    360.2429    
    333.4885    
    314.1069    
    343.6678    
    410.1050    
    326.9157    
    346.6946    
    368.9449    
    320.1533    
    352.1707    
    249.7334    
    242.6163    
    301.3638    
    238.1287    
    216.4153    
    253.1326    
    233.8361    
    204.8324    
    146.7681    
    185.7779    
    298.0165    
    310.4266    
    227.6871    
    252.2336    
    155.1942    
    233.1318    
    269.8771    
    192.1750    
    236.1438    
    175.5626    
    197.6103    
    270.8386    
    232.0431    
    234.6702    
    303.1507    
    242.3594    
    298.6501    
    293.9583    
    233.1968    
    192.0529    
    189.8160    
    197.2967    
    231.5328    
    195.2514    
    144.4982    
    229.6755    
    161.8494    
    242.2323    
    259.4781    
    286.4998    
    289.1318    
    255.1800    
    311.4993    
    328.8063    
    382.8886    
    346.3210    
    348.9620    
    212.5233    
    283.3481    
    171.6243    
    225.2599    
    208.4312    
    145.5354    
    126.3576    
    114.4547    
    158.2286    
     97.9176    
    100.5252    
     81.3955    
    129.9313    
    139.8073    
    132.7365    
    120.8290    
    171.8890    
    104.2876    
    123.8252    
    162.7657    
    112.1160    
    165.5749    
     61.7938    
    175.6602    
    200.1258    
    108.2424    
    215.0903    
    234.7375    
    188.7546    
    264.3439    
    279.1632    
    172.3470    
    242.9992    
    216.4353    
    182.6255    
    221.6811    
    236.4667    
    290.2663    
    212.5341    
    229.7449    
    371.5378    
    247.1631    
    315.6435    
    306.0663    
    276.9765    
    325.9955    
    353.0963    
    255.6204    
    202.3077    
    248.6999    
    180.8477    
    168.9139    
    118.2641    
    157.1814    
    104.1473    
    106.7559    
     10.5406    
     82.9914    
    131.5101    
    105.1077    
    187.6201    
     81.3476    
    149.2213    
    195.4782    
    188.3883    
    157.0632    
    171.7949    
     82.4999    
    140.6899    
     80.4708    
     92.7304    
    114.6614    
     61.7555    
    127.1344    
    156.3689    
     26.2129    
    164.0219    
    198.1668    
     89.4381    
    116.1976    
    145.4151    
    160.1357    
    116.7737    
     83.1592    
    102.6623    
    173.0203    
     52.3975    
     88.7524    
    108.2604    
    103.6223    
    193.3809    
    191.1476    
    186.4872    
    230.3887    
    196.5759    
    141.0349    
    179.9801    
    204.4332    
    139.1909    
    195.1087    
     88.8361    
    127.6733    
    135.1198    
    128.0572    
    196.0685    
     94.6217    
    150.4066    
    177.2438    
    177.4357    
    201.8826    
    240.9464    
    146.5250    
    168.5099    
    226.9361    
    249.0128    
    212.7451    
    176.5470    
    135.5814    
    196.3304    
    174.6988    
    196.7142    
    226.0411    
     93.0587    
    131.8958    
    182.9296    
    156.4729    
    178.4661    
    178.6580    
    166.7348    
    234.8685    
    213.1951    
    223.1016    
    189.3147    
    131.3981    
    216.3912    
    168.0780    
    185.2322    
    275.3350    
    217.1587    
    197.9337    
    334.4582    
    268.7968    
    268.9887    
    191.4253    
    203.7446    
    206.3635    
    238.1302    
    119.5836    
    134.2760    
     88.5899    
     71.9074    
    113.1056    
     79.5209    
     41.1834    
    111.2660    
     31.9468    
     75.4670    
     82.8910    
     80.6718    
    230.9032    
    134.1602    
    173.0659    
    197.4955    
    120.2369    
    180.9103    
    297.7642    
    195.8373    
    164.5305    
    208.3484    
    138.3041    
    228.1537    
    143.5227    
     88.1779    
    151.1618    
    173.1382    
    166.0647    
    161.4160    
    147.0921    
    135.1949    
    174.0971    
    171.8668    
    278.9046    
    194.0557    
     78.2366    
    184.7458    
    221.3169    
    214.2272    
    241.1321    
    158.8777    
    200.2479    
    256.2934    
    251.6223    
    210.5254    
    205.8646    
    126.1816    
    223.2342    
    145.8981    
    194.5087    
    231.0936    
     81.3043    
     88.7259    
    200.1234    
    142.2140    
    127.9070    
    183.7340    
    130.7063    
    186.5404    
    210.9747    
    274.3429    
    191.9609    
    192.1526    
    216.5930    
    199.8072    
    187.8822    
    239.0194    
    236.7816    
    103.8497    
    166.8559    
     72.9019    
     87.5468    
    162.5922    
     78.2943    
     32.7761    
     32.9677    
     71.6435    
     69.4286    
     88.8884    
     60.1844    
    142.3629    
    310.0342    
