  11100 12  1   YSAG7    PUC    BMW  .000 U S1 021793 00.01   1        
  PROGRAM LAMBDA-9   VERSION 02.31                                     
  USER BMW DATE & TIME  1993 02 21 10.26 56.05    10.500    295K U     
 AU1 HO  50     0     0 YSAG             .300000 -  .375000 .00010     
 FILE NAME                                ON PC = YSAG7.SP             
 NO_POINTS  =   751.    pts   DATA_INTV =  .000100 æm                  
 MIN_LAMBDA =   .300000 æm     MIN_DATA =    .12610                    
 MAX_LAMBDA =   .375000 æm     MAX_DATA =    .37620                    
 SCANSPEED  = 15.000000 NM/MIN SLITWIDTH=   .00000 æm                  
  RESP TIME =   .5      sec SENSITIVITY = 5          DATE=93/02/17     
 16:26:36    93/02/17                                                  
  YSAG7                                                                
  This spectra is part of Database LASERS
 Database LASERS was created by Pat Cross working 
 at NASA Langley Research Center, Internal Operations Group,
 Aerospace Electronics Systems Division, Remote Sensing 
 Technology Branch. phone:(757)864-1633   fax:(757)864-7894 
     e-mail p.l.cross@larc.nasa.gov 
     homepage http://aesd.larc.nasa.gov/laser/dbmain.htm
  EOH     (1X,F11.4)                                                   
   751.         
   7818.7407    
   7618.8081    
   7406.7256    
   7864.3745    
   7575.4805    
   7600.6528    
   7478.0210    
   7356.4927    
   7062.8916    
   7377.4126    
   6898.6748    
   6966.3086    
   7350.5132    
   7462.6611    
   6984.1719    
   6518.6108    
   6598.8325    
   6734.9175    
   7168.6982    
   6590.0103    
   6559.5186    
   6310.6846    
   6362.4731    
   6550.9087    
   6303.1519    
   6192.9634    
   6379.2163    
   5909.2480    
   6347.0439    
   6170.2974    
   6328.5156    
   5796.8652    
   5978.3652    
   6320.9868    
   5830.5688    
   6209.5869    
   6154.3418    
   5825.1357    
   5927.2051    
   5399.5161    
   5385.6611    
   5498.2476    
   5496.8911    
   5445.0146    
   4970.9375    
   5180.0659    
   5278.5347    
   5030.2593    
   4882.9077    
   4833.7988    
   4942.6099    
   4700.2617    
   4735.9644    
   5123.6025    
   4485.1626    
   4603.6450    
   4662.9189    
   4250.7305    
   4579.3857    
   5191.5825    
   4936.4336    
   4555.3335    
   4756.1367    
   4649.2412    
   4183.2554    
   4356.6826    
   4403.1616    
   4542.8408    
   4218.8921    
   4519.3145    
   4207.9980    
   3667.8882    
   4495.8652    
   4588.5464    
   4050.4919    
   4084.8030    
   3861.0049    
   3906.2766    
   3862.3826    
   3818.6926    
   3490.2561    
   4143.4814    
   3854.0479    
   3943.3315    
   3635.9807    
   3409.4512    
   3196.7451    
   3736.8906    
   3380.8608    
   3749.4329    
   2950.0222    
   3214.4473    
   3514.1421    
   2675.9688    
   2946.3806    
   3083.5681    
   3231.9507    
   2992.9375    
   2777.9426    
   2718.4282    
   3247.9060    
   2989.1072    
   2949.4849    
   3304.2815    
   2891.2415    
   2780.7139    
   3079.6216    
   2693.2329    
   2564.3904    
   3022.5244    
   2231.3784    
   2431.1697    
   2753.1650    
   2376.2468    
   2260.5513    
   2658.5176    
   2080.3872    
   2044.2721    
   2664.3425    
   2321.1106    
   2061.6030    
   2384.2842    
   2192.0352    
   2291.3281    
   2119.7676    
   2325.0325    
   2230.5579    
   2194.3958    
   2110.4883    
   2218.3806    
   2144.0896    
   2213.5066    
   1742.9604    
   2037.3086    
   1983.1196    
   2482.4558    
   2016.5529    
   1850.1970    
   1501.5222    
   1799.7322    
   2102.0002    
   2066.7805    
   1522.7499    
   1155.3546    
   1656.7629    
   1386.6018    
   1498.3564    
   1583.1733    
   1359.9286    
   1345.0984    
   1601.0081    
   1612.9844    
   1973.1041    
   1727.8422    
   1585.4111    
   1570.2532    
   1031.0634    
   1175.0420    
    881.0954    
   1076.2402    
   1756.1213    
   1039.2998    
   1617.3767    
   1353.0627    
    884.9457    
   1218.5142    
   1397.5913    
   1155.0663    
   1359.6008    
   1336.3063    
   1078.0911    
    671.0201    
   1539.0654    
   1217.8298    
    894.0659    
    804.0044    
    722.9937    
   1135.5016    
   1320.2593    
    868.8594    
   1257.1306    
   1011.5808    
    619.0293    
    781.6000    
    726.4717    
   1024.8297    
    476.4661    
    896.3224    
    492.2280    
    512.4263    
    615.0603    
    884.7500    
   1183.2026    
   1245.8400    
   1138.6343    
    906.6345    
   1272.0164    
   1275.0497    
   1058.7483    
   1137.5323    
    973.2957    
   1110.2456    
   1105.0293    
   1074.7576    
   1296.1085    
   1198.1779    
   1050.9993    
    954.7692    
   1040.7848    
   1043.9778    
    857.7166    
    730.4851    
   1094.8815    
   1007.2123    
    773.2881    
   1005.3936    
    845.0923    
    954.4485    
   1031.3678    
    936.4321    
    785.5082    
    684.1947    
   1011.3154    
    916.8860    
    887.7353    
    538.5541    
    677.3961    
    577.3762    
    820.2846    
    807.5522    
    635.4581    
    623.0584    
    429.6221    
    653.7177    
    657.1446    
    597.4160    
    420.6307    
    825.9195    
    718.1694    
    634.8176    
    677.5679    
    454.1411    
    566.7679    
    360.6164    
    589.2952    
    765.1111    
    863.0082    
    560.6917    
    556.3785    
    739.0449    
    656.4886    
    343.4741    
    508.3426    
    465.6393    
    708.7377    
    511.0484    
    715.3365    
    281.4362    
    134.1378    
    372.1582    
    224.3599    
    326.1927    
    420.7672    
    431.8688    
    269.0698    
    476.8105    
    336.5031    
    370.2096    
    419.0148    
    339.6319    
    215.9153    
    271.8065    
    223.1775    
    264.0513    
    252.7377    
    413.2236    
    148.7175    
    233.7968    
    341.4344    
    367.2930    
    222.3693    
    307.3758    
      2.1273    
     71.5733    
    163.1479    
    306.6344    
    170.3817    
     64.4577    
    228.8806    
    159.2600    
     31.9518    
     21.1692    
    126.3824    
    137.2646    
    213.6274    
    341.4033    
    293.6316    
    129.9228    
    119.0626    
    318.6197    
    336.6484    
    574.7804    
    497.0753    
    478.3727    
    591.8461    
    996.7057    
    775.5983    
    579.4431    
    524.0714    
    549.2585    
    298.3736    
    417.4517    
     69.0293    
    337.4173    
    319.2024    
    481.3827    
    747.1738    
   1083.3027    
   1296.1536    
   1073.9772    
   1024.7371    
    968.3176    
   1089.7727    
   1114.8424    
   1139.8983    
    759.8925    
    799.3513    
   1029.6621    
    995.6438    
   1064.7478    
    949.9389    
   1055.5552    
   1124.6295    
    870.9797    
    664.2112    
   1088.6320    
   1209.1703    
   1057.4562    
   1111.4792    
   1298.2931    
   1576.4253    
   1229.6656    
    846.4304    
    806.1672    
   1444.1932    
   2234.0793    
   2602.4185    
   3170.8762    
   3655.8018    
   3327.2793    
   2647.6770    
   1985.0621    
   1294.6034    
   1905.8754    
   2512.9031    
   1827.2974    
    929.3483    
    599.3911    
    483.5750    
    403.3016    
    371.8581    
    597.5070    
    412.7985    
    189.1513    
    419.1019    
    216.2494    
     69.9814    
    127.5784    
     63.2332    
     73.3707    
     16.0946    
    208.7012    
    123.9610    
    385.5203    
    245.6228    
    120.4550    
      0.0000    
      0.0000    
     90.1151    
      0.0000    
      0.0000    
      0.0000    
     76.6763    
     59.9932    
      0.0000    
      0.0000    
      0.0000    
      0.0000    
     30.1675    
      0.0000    
      0.0000    
      0.0000    
      0.0000    
     53.4178    
    129.4893    
     73.2268    
      0.0000    
      0.0000    
      0.0000    
    132.4865    
     89.6072    
      0.0000    
      0.0000    
      0.0000    
      0.0000    
      0.0000    
      0.0000    
     73.0600    
     43.6866    
    105.6697    
     24.1884    
    105.5786    
    364.7313    
    620.3166    
    523.1447    
    255.5018    
    528.9691    
    505.3447    
    654.5286    
    418.7443    
    290.5359    
    306.6624    
    407.9391    
    208.5878    
    172.8056    
    299.2604    
    243.8187    
    573.8393    
    622.8729    
    764.8345    
    934.4183    
    930.3025    
    706.6793    
    623.6885    
    456.2938    
    290.6313    
    364.7292    
    367.6883    
    448.3893    
    347.7659    
    467.1483    
    790.3820    
    609.4412    
    677.5386    
    634.5475    
    754.9993    
    653.0808    
    753.7808    
    652.0369    
    739.4955    
    985.2283    
    987.7232    
    937.4697    
   1012.5051    
    903.1017    
    899.0885    
   1158.8110    
   1401.5243    
   1296.5894    
   1046.9965    
    736.2009    
    642.0699    
    484.6794    
    750.5673    
    727.3816    
    976.4662    
   1195.4183    
   1270.3920    
   1412.0471    
   1494.2617    
   1263.9457    
   1174.0867    
   1091.3217    
   1015.5459    
    638.6059    
    307.0433    
    154.3869    
    431.7990    
      0.0000    
    200.4635    
     67.6608    
    399.1579    
    135.2153    
    323.7832    
    463.8049    
    397.9004    
    153.2451    
    372.4061    
    387.6374    
    703.4160    
    349.8464    
    352.6631    
    404.9987    
    395.3892    
    553.4568    
    506.3335    
    323.5655    
    118.4776    
     48.6310    
    130.4414    
     24.3923    
     51.5395    
     30.3829    
     21.3231    
    297.0773    
    373.2457    
    388.2527    
    470.7380    
    302.2146    
    347.6459    
    393.1157    
    530.5942    
    404.6816    
    340.4548    
    173.9555    
    249.1310    
    245.9115    
     98.6249    
    233.4714    
    146.2854    
      0.0000    
      3.1374    
    101.1792    
    139.8272    
     47.5398    
    211.1966    
    172.2305    
    342.6208    
    520.3438    
    396.1494    
    296.8635    
    233.9572    
    183.2257    
     67.7273    
    379.5598    
    138.3821    
      0.0000    
    268.3972    
    135.0658    
    232.3901    
    246.9901    
    626.2231    
    713.3634    
    746.1118    
    669.9183    
    750.9655    
    668.8380    
    701.4423    
   1026.0699    
   1095.8208    
   1426.4819    
   1566.3906    
   1368.0973    
   1172.1426    
    978.4753    
    938.1941    
   1092.7333    
   1082.6956    
   1566.9647    
   1644.0454    
   1841.4159    
   1868.4609    
   1643.2125    
   1545.0996    
   1250.5046    
   1461.9495    
   1377.4319    
   1324.0803    
   1295.4401    
   1395.6475    
   1545.7406    
   1411.8517    
   1512.3593    
   1750.2378    
   1959.1697    
   2227.5991    
   2919.1106    
   3491.6741    
   3933.8989    
   4018.0076    
   3698.7097    
   3555.1157    
   3446.7043    
   3224.7852    
   2847.5088    
   2273.2869    
   2059.5540    
   1973.2424    
   1652.3635    
   1839.3490    
   1865.8007    
   2004.4049    
   2384.3701    
   2843.0869    
   2883.1846    
   3074.2966    
   2845.9573    
   2769.0322    
   2808.9075    
   2745.1838    
   2617.5437    
   2837.7346    
   2761.1267    
   2697.7805    
   2737.3838    
   2687.0408    
   2401.9414    
   2631.6016    
   2779.9717    
   3026.6509    
   3086.0837    
   3303.1982    
   3436.0508    
   3429.9507    
   3610.1479    
   3025.0356    
   2987.0378    
   2534.8684    
   2662.4412    
   2411.6177    
   2176.7544    
   2233.7341    
   2284.5996    
   2224.0308    
   2206.8550    
   1691.4738    
   1687.1503    
   1421.2506    
   1517.7308    
   1348.4080    
   1556.8424    
   1803.2889    
   1459.8447    
   1455.7557    
   1581.5691    
   1708.0394    
   2058.3047    
   2096.1326    
   2213.2073    
   2771.8745    
   4159.7852    
   6277.9756    
   6943.7202    
   5901.8994    
   5084.4175    
   4852.0161    
   3505.3118    
   2218.9109    
   2081.2000    
   2245.7756    
   3058.7710    
   3853.9617    
   3722.8091    
   3328.2261    
   3710.3430    
   5274.4805    
   6471.8447    
   5993.9028    
   5124.1538    
   4193.1187    
   3601.9084    
   2755.3059    
   2172.1763    
   1520.1595    
   1556.5981    
   1350.9939    
   1467.6184    
   1475.1112    
   1580.6782    
   1541.9224    
   1740.6366    
   1574.1252    
   1697.2788    
   1485.4639    
   1304.6317    
   1210.2404    
   1285.6058    
   1056.7562    
   1030.7953    
    772.4124    
    675.8168    
    401.1906    
    641.9620    
    239.7337    
    306.2508    
    340.7439    
    262.9695    
     21.8461    
    129.8186    
    127.0071    
    219.4362    
     89.7807    
     23.9863    
    205.5073    
    377.8520    
    263.2510    
    181.0942    
    151.9309    
    164.8881    
    378.7848    
    222.3634    
    372.7824    
    195.5945    
    198.0008    
    400.9038    
    197.5540    
    247.1834    
    296.8763    
    100.3093    
    354.2107    
     53.2521    
    348.2820    
    334.8042    
      0.0000    
    407.8099    
    278.8364    
    223.7426    
    283.4991    
    166.0758    
    262.0654    
    217.5667    
    240.7113    
    274.2598    
    412.3378    
    268.5019    
    146.5633    
    278.3297    
    141.0206    
    423.5222    
    394.4376    
    246.1447    
    212.3261    
    168.3240    
    232.4591    
    255.4063    
    366.3054    
    203.4115    
    113.5269    
    244.0334    
    323.5905    
    361.9892    
    364.2266    
    258.3675    
    404.8418    
     94.4932    
    367.9927    
    329.0674    
    106.6790    
    129.3414    
     86.0652    
    134.0318    
