  11100 16  1 01NYLF4.SP PNYLF4 MS  .0000 C S1 010588 00.01   1         
  PROGRAM PE-CONVERT     VER 02.30                                      
  USER MS  DATE & TIME  1988 01 28 16.49 04.86    4.1000    295K C      
 AU1 ND 100     0     0 YLF             0.325000 - 0.830000 .00020       
 FILE NAME ON PE-3600 = 001 NYLF4.SP      ON PC = 001NYLF4.SP            
 NO_POINTS  =  2526.    pts   DATA_INTV = 0.000200 µm                    
 MIN_LAMBDA =  0.325000 µm     MIN_DATA =      0.                        
 MAX_LAMBDA =  0.830000 µm     MAX_DATA = 107808.0                       
 SCANSPEED  = .015      µm/min SLITWIDTH=  0.00010 µmITA =   0.          
       RESP =   1.0     sec        ISMS =   0.       DATE=88/01/05       
       INST = 509.                    ? =   0.                           
 POLARIZED SPECTRA. PLASTIC POLARIZERS USED.EFFECTS OF PLASTIC           
 NORMALIZED OUT.ONLY 95%POLARIZED AT 810NM. POL. GETS WORSE              
 (90%) AT 820 AND WORSE BELOW 390NM.                                     
 converted by Mark Storm. header added by hand.                          
 ND:YLF,AIRTRON,.162IN THICK,C-AXIS,PARAL. TO AWIND                      
  EOH     (1X,F11.4)                                                     
  2526.           
   2626.4663      
   1743.4634      
   2456.3579      
   2574.4722      
   3159.4971      
   2690.4214      
   3218.2549      
   3109.3208      
   3762.5444      
   3564.3804      
   3799.7295      
   3487.3938      
   3691.4241      
   3257.1077      
   3960.6084      
   3562.5076      
   4097.2886      
   4492.0410      
   4122.5347      
   3028.2644      
   3480.0427      
   3345.8345      
   3398.7917      
   3398.9822      
   3782.4880      
   3910.2598      
   4677.5488      
   5059.2188      
   6176.6626      
   6677.4717      
   5951.4668      
   4770.9067      
   2916.5325      
   2783.9231      
   2806.1902      
   3020.8806      
   3351.6672      
   2818.5322      
   2130.0686      
   2425.7009      
   1762.2035      
   1363.5135      
   1996.5156      
   2109.5056      
   1158.0962      
   1172.0477      
   1614.1832      
   2010.2499      
   1209.8044      
   1561.4917      
   1354.0454      
   1728.9497      
   1075.7189      
   1689.8876      
   1159.9000      
   1343.8430      
   1198.8289      
   1973.5874      
   1997.9696      
   1473.8798      
   1332.2520      
   1107.5161      
   1598.8175      
   1596.1882      
   1586.5568      
   1555.9358      
   1955.2548      
   1580.0801      
   2125.4106      
   1521.6831      
   1166.8413      
   1844.0419      
   1554.3539      
   2111.9607      
   1475.0968      
   2073.6951      
   2329.5342      
   2138.4185      
   1558.1783      
   1357.7323      
   1800.3279      
   1145.3317      
   1138.6235      
   1447.3691      
   1782.6455      
   1426.8248      
   1421.4287      
   1434.1190      
   1674.8479      
   1766.5444      
   2271.3274      
   1993.6615      
   2133.7793      
   2528.0996      
   2832.9087      
   2305.3035      
   2280.9629      
   1715.7245      
   1391.4445      
   2076.2810      
   2059.3059      
   1747.3700      
   1964.1606      
   1528.7839      
   1980.1332      
   2003.0753      
   2017.4841      
   2104.7415      
   2213.8525      
   2786.7625      
   3027.8647      
   3411.3049      
   3661.7339      
   4773.8843      
   5494.6743      
   7071.5718      
   7949.9800      
   9368.3154      
  11391.9531      
  13564.4336      
  15765.9893      
  17033.0234      
  17250.4297      
  16446.9707      
  16431.6836      
  16496.2578      
  15935.2822      
  15259.0635      
  14401.3857      
  13999.9785      
  12694.1709      
  13268.3965      
  14577.8486      
  14774.3525      
  14904.6758      
  14702.6396      
  15336.5918      
  16249.1035      
  15123.7920      
  12572.2305      
  10012.0596      
   7798.0298      
   6953.3218      
   7457.5806      
   6847.4365      
   6299.6987      
   6451.4746      
   5116.5469      
   4281.7402      
   4008.2588      
   3900.4211      
   4158.9829      
   3871.4924      
   4954.5718      
   5345.1519      
   4837.8228      
   4961.4419      
   5596.7432      
   7351.4067      
   9533.1709      
  11352.3154      
  14675.3721      
  23050.7988      
  21283.9648      
  11915.0273      
   7002.1128      
   4817.0420      
   3924.4634      
   3302.5188      
   2439.5803      
   1636.9785      
   2366.0488      
   1648.4878      
   1480.8169      
   1585.7064      
   1924.0989      
   1197.2040      
   1209.7466      
   1663.3740      
   1495.6052      
   1277.7949      
   1087.9552      
   1188.4076      
    988.3351      
    587.5356      
   1195.7117      
   1433.9142      
    751.0551      
   1019.0947      
   1240.3824      
    696.0810      
    879.0716      
    815.3948      
    996.5485      
    342.9684      
    603.8375      
    830.8623      
    798.4561      
   1544.2927      
    923.7086      
   1673.4352      
   1557.2770      
   1012.8057      
    404.1134      
    276.5929      
    680.5868      
   1216.4934      
    367.3484      
    710.6719      
    467.6595      
    770.4139      
    516.0934      
    966.3463      
   1155.4773      
   1180.3690      
    570.2536      
   1121.5266      
   1095.5852      
    257.2409      
     87.0256      
    728.4646      
    927.9969      
    620.8873      
    707.2496      
   1165.1694      
   1919.5243      
    564.9820      
    403.2789      
    812.0519      
    278.5535      
    866.5889      
    811.0802      
    124.2650      
    727.4424      
    765.4219      
    389.6465      
     16.9534      
    736.0576      
   1127.1121      
   1233.1962      
    631.2662      
    510.6024      
    904.8240      
   1573.9346      
    643.8800      
   1001.9933      
    336.4725      
      0.0000      
    364.6533      
    664.7057      
   1489.6510      
    526.5802      
    994.6709      
    693.5074      
     25.7642      
   1162.2104      
    845.4106      
    151.1287      
      0.0000      
      0.0000      
      0.0000      
      0.0000      
   1309.2474      
    963.2639      
    378.5958      
   1488.7015      
    494.9469      
    842.6777      
    772.3384      
    813.0828      
    694.2269      
   1162.7755      
   1057.2594      
    915.4214      
    945.5007      
    792.1251      
   1098.8383      
    820.8134      
    505.7459      
    831.8979      
    814.3907      
   1635.9548      
    890.6431      
   1155.9470      
   1043.6232      
   1027.3291      
   1100.0140      
    843.6884      
    938.9725      
    873.7909      
    965.1012      
   1268.4622      
   1018.5735      
   1203.8849      
   1259.1434      
   1065.4265      
   1154.7062      
   1201.5897      
   1023.3618      
    893.9683      
   1193.6725      
   1308.2988      
    929.6848      
   1379.1545      
    924.4679      
    991.3752      
    605.5252      
   1066.7906      
    863.7371      
    846.2020      
    876.1842      
   1285.9275      
   1127.6738      
   1213.0365      
    637.3435      
    954.3028      
    864.6299      
    995.4457      
    878.4329      
   1079.0858      
   1277.2570      
   1219.4332      
    918.3074      
   1227.9203      
   1471.8088      
   1313.7378      
    778.9796      
    958.3485      
   1118.4572      
   1180.3833      
   1148.8771      
    909.7623      
    938.4550      
   1124.4878      
   1123.2213      
    998.7755      
   1226.5729      
    958.0665      
    875.1733      
   1006.0289      
   1130.7272      
   1074.6195      
   1606.3547      
   1314.2915      
    924.7606      
   1231.6647      
    901.8459      
   1247.0425      
   1356.3446      
   1338.4473      
   1116.6888      
   1244.7054      
   1033.3621      
    991.1245      
   1195.4254      
   1088.4222      
   1180.4990      
   1048.9258      
    840.6281      
   1087.4648      
   1013.6962      
   1063.0228      
   1156.3745      
   1004.4436      
    879.2515      
    834.5682      
   1049.8518      
   1309.8738      
   1228.5387      
    778.0942      
    912.4892      
   1084.5836      
   1425.4065      
   1095.7474      
   1532.8075      
   1493.8729      
    891.3393      
   1261.1628      
   1075.7018      
   1155.3519      
   1043.0599      
   1272.6039      
   1290.6550      
   1192.8710      
    744.4550      
   1062.7094      
   1134.0771      
   1174.0126      
   1212.6359      
   1270.6355      
    940.3442      
   1362.0989      
   1281.9747      
   1356.7545      
   1476.2627      
   1002.1865      
    866.1530      
   1157.1270      
   1216.3687      
    916.7241      
    969.9296      
   1084.8101      
   1383.9592      
   1085.0029      
   1016.7101      
   1168.8911      
   1219.8951      
   1121.0277      
   1171.9279      
    996.7111      
   1298.9071      
   1308.6779      
   1212.2054      
   1259.1565      
   1318.6385      
   1180.8414      
   1090.3538      
    963.3746      
   1155.0117      
   1332.9427      
   1077.0339      
    999.2084      
   1126.5609      
    974.8439      
   1332.0283      
    794.3651      
    988.7619      
   1035.2806      
   1398.8994      
   1238.5927      
   1511.7147      
   1365.9033      
   1150.8230      
   1013.9755      
   1450.8354      
   1545.6475      
   1524.8132      
   1198.0161      
   1196.7312      
   1569.7509      
   1445.8239      
   1190.1266      
   1012.0637      
   1051.7849      
    821.8339      
    914.2233      
   1303.6250      
   1033.0066      
    919.9361      
   1317.7156      
   1392.5803      
   1389.8958      
   1284.8254      
   1108.8212      
   1552.9452      
   1671.9818      
   1752.1589      
   1522.5195      
   1482.2112      
   1375.3569      
   1375.4451      
   1043.8182      
   1045.2751      
   1334.1698      
   1520.3475      
   1350.9532      
   1642.1090      
   1226.8489      
   1218.6736      
   1133.5430      
   1286.4099      
   1009.1756      
   1278.2991      
   1246.6604      
   1382.2095      
   1378.1387      
   1673.8179      
   1252.5204      
   1238.8219      
   1477.0792      
   1255.5341      
   1212.9117      
   1298.4893      
   1434.3235      
   1374.7510      
   1238.0427      
   1173.4512      
   1412.4481      
   1214.8832      
   1264.5732      
   1161.4220      
   1147.7771      
   1310.3890      
   1267.6692      
   1422.7538      
   1356.2872      
   1240.3455      
   1334.3112      
   1206.0879      
   1203.4187      
    978.8932      
   1376.1781      
   1405.3785      
   1161.1346      
   1404.1547      
   1252.1185      
   1127.0701      
   1300.5818      
   1385.0703      
    994.6368      
   1281.4967      
   1242.9624      
   1359.0776      
   1108.4490      
   1210.1570      
   1255.6942      
   1167.6942      
   1209.0223      
   1206.3523      
   1124.0144      
   1361.1094      
   1445.8046      
   1515.4600      
   1497.4303      
   1458.5531      
   1638.6373      
   2019.8219      
   2798.9875      
   4360.8438      
   5939.2095      
   4183.1421      
   2481.1987      
   2296.4153      
   2469.7617      
   3171.0164      
   3630.2361      
   3095.2358      
   2839.4695      
   2144.8525      
   1708.4668      
   1470.9447      
   1231.5836      
   1518.4359      
   1557.5649      
   1731.3397      
   1197.4868      
   1174.1959      
   1192.1404      
   1375.7864      
   1126.3834      
   1374.5553      
   1221.3436      
    991.2294      
   1060.9575      
   1174.8131      
    980.5554      
   1202.4618      
   1051.6908      
    929.0407      
   1029.9792      
   1060.1230      
   1157.4902      
   1226.3136      
   1022.0895      
   1053.5917      
   1016.7820      
   1044.1744      
   1148.3331      
   1044.3250      
   1073.1161      
   1209.0240      
   1051.3837      
   1114.4213      
   1180.3722      
   1106.3489      
   1260.3586      
   1043.5562      
   1253.6149      
   1123.0939      
   1160.2129      
   1119.1301      
   1019.3400      
   1000.3089      
   1075.5251      
   1274.8147      
   1280.4078      
   1137.3964      
   1224.0464      
    836.2500      
   1077.3318      
   1060.9900      
   1178.9498      
   1014.6862      
   1040.7062      
   1136.6089      
   1105.1522      
    873.4401      
    761.1418      
    907.5314      
    861.4462      
   1063.0796      
   1218.1774      
   1003.1281      
    984.1086      
   1189.5093      
   1222.5934      
   1049.8398      
   1132.0535      
   1062.2850      
    882.5153      
   1161.0842      
   1051.5602      
   1191.4509      
   1254.8397      
   1297.6769      
   1288.0826      
   1092.9532      
   1073.8628      
   1136.9453      
   1306.3132      
   1237.4219      
   1296.7850      
   1270.6375      
   1328.7017      
   1373.0482      
   1251.5457      
   1151.2234      
   1276.5027      
   1264.1594      
   1441.3510      
   1587.6818      
   1722.2489      
   1629.7706      
   1279.6757      
   1462.5359      
   1518.2670      
   1547.6094      
   1476.6456      
   1603.6028      
   1729.8213      
   1701.8016      
   1652.7889      
   1928.9814      
   1970.1711      
   2194.0757      
   2284.5437      
   2376.7910      
   2659.8855      
   2876.9807      
   2998.1272      
   3371.0950      
   3103.5864      
   2685.0537      
   2391.6960      
   2214.8071      
   2033.5015      
   1939.8408      
   2035.0559      
   2006.6808      
   1874.9285      
   1972.7262      
   1801.6637      
   1755.2644      
   1985.7031      
   1909.2057      
   2028.4695      
   2064.1245      
   2300.3875      
   2181.3523      
   2235.8735      
   2075.7856      
   2203.0293      
   2287.7708      
   2223.2256      
   2406.0754      
   2532.1511      
   2586.0049      
   2723.2595      
   2713.0796      
   2839.2832      
   2602.2781      
   2474.5222      
   2464.4478      
   2405.2126      
   2228.2358      
   2304.4299      
   2425.6370      
   2626.0371      
   2926.7761      
   3171.5674      
   3310.6582      
   3167.2239      
   3191.1438      
   3045.4429      
   2819.6616      
   2638.2092      
   2449.4150      
   2332.5376      
   2144.6580      
   2196.2253      
   2025.0281      
   2087.7468      
   2271.0017      
   2305.5669      
   2643.1482      
   3163.6321      
   4134.9644      
   4771.2671      
   4573.1807      
   3908.2637      
   3255.0083      
   2979.9255      
   2506.9158      
   2307.6243      
   2017.3661      
   1830.4825      
   1981.9722      
   2090.1621      
   2300.7393      
   2755.1875      
   3487.0547      
   3414.7461      
   2965.8147      
   2393.2678      
   2050.6963      
   2194.9646      
   2049.3955      
   2023.8457      
   1971.3483      
   2155.1428      
   2042.5195      
   2182.4417      
   2171.0542      
   2268.5901      
   2644.9817      
   2596.9558      
   2353.6609      
   1677.1174      
   1738.9407      
   1765.7163      
   1689.9170      
   1579.4199      
   1640.9917      
   1579.5386      
   1787.1289      
   1959.5979      
   2332.6440      
   2808.2061      
   4325.8589      
   6334.7612      
   4654.7803      
   3242.5256      
   2533.9912      
   2004.0708      
   2122.3396      
   1927.5858      
   2002.8265      
   2068.3228      
   1790.7666      
   2085.5383      
   2448.9385      
   2750.3584      
   3330.0176      
   4630.2114      
   6485.4146      
   7192.1836      
   6571.0435      
   5021.2026      
   4166.5933      
   3594.3628      
   3082.7222      
   2778.7832      
   2750.9905      
   2871.4651      
   2625.4492      
   2631.3354      
   2678.0840      
   2095.1265      
   2032.5197      
   1679.5576      
   1538.4316      
   1553.8240      
   1470.3435      
   1442.6177      
   1441.2854      
   1211.9730      
   1159.8263      
   1365.2178      
   1179.1582      
   1151.7618      
   1121.6553      
   1023.2584      
   1035.5977      
   1017.9091      
   1089.0155      
    939.0165      
   1027.6293      
   1252.5565      
   1067.3516      
   1157.8040      
   1030.5804      
    864.6685      
   1044.3434      
    963.9509      
   1151.2178      
   1152.6461      
    943.7026      
   1040.5211      
   1239.3884      
   1496.8693      
   1431.6188      
   1336.1136      
   1332.0226      
   1252.0543      
    953.6605      
    838.3301      
    929.2910      
    835.7308      
    845.2637      
    951.2085      
   1053.5168      
    934.9955      
   1098.7529      
    999.0895      
    975.9808      
    947.4495      
   1101.7048      
   1040.2334      
   1000.7180      
   1197.8779      
   1121.0900      
   1089.6528      
   1133.5278      
   1058.3074      
   1092.5469      
   1092.5996      
   1121.4070      
   1057.1532      
   1074.9767      
   1217.6538      
   1060.0441      
   1097.0193      
   1106.6554      
   1143.7042      
   1180.8060      
   1205.5913      
   1224.8969      
   1278.6649      
   1176.8953      
   1238.8152      
   1249.8806      
   1227.9083      
   1305.1353      
   1207.3807      
   1130.5653      
   1303.9093      
   1332.9629      
   1414.6823      
   1416.1204      
   1509.2515      
   1541.3359      
   1537.2072      
   1509.4047      
   1508.0619      
   1580.5953      
   1717.8350      
   1684.2180      
   1694.0840      
   1657.6985      
   1736.2958      
   1943.7448      
   1874.4651      
   1921.1840      
   2019.1056      
   2053.2905      
   2124.6072      
   2193.2693      
   2201.9092      
   2127.6113      
   2255.0488      
   2410.5796      
   2344.2861      
   2354.4182      
   2438.1843      
   2472.9600      
   2532.4480      
   2581.8965      
   2529.6438      
   2627.1223      
   2516.6841      
   2764.5754      
   2706.0796      
   2871.8760      
   2975.1672      
   3010.7151      
   3062.6267      
   3018.2163      
   3062.7246      
   3079.0928      
   3119.2524      
   3202.7014      
   3122.3240      
   3423.0916      
   3320.9890      
   3397.6116      
   3574.2419      
   3747.5837      
   3785.8013      
   4127.4292      
   4267.3311      
   4314.1738      
   4195.8462      
   4076.5432      
   4053.4087      
   4004.0735      
   4334.7217      
   4763.5645      
   5117.6470      
   5542.5356      
   5933.2061      
   6254.0361      
   6770.0635      
   7323.7246      
   8194.0439      
   9009.3486      
  10110.8857      
  11055.7363      
  12383.9883      
  13316.7422      
  13332.6025      
  12756.4727      
  12040.9961      
  11666.7178      
  11477.5439      
  10963.6582      
  10607.4580      
  10063.9219      
   8955.1328      
   8385.8760      
   7671.4238      
   7264.5864      
   6956.4688      
   6840.2153      
   6812.5747      
   6552.8257      
   6209.6064      
   5644.2153      
   5258.2236      
   4744.3970      
   4227.1738      
   3844.4268      
   3336.7493      
   3320.3005      
   3102.4829      
   2817.4841      
   2885.1667      
   2794.0913      
   2646.4292      
   2492.4097      
   2601.3621      
   2505.5425      
   2436.1045      
   2316.4666      
   2263.3472      
   2385.6997      
   2446.4060      
   2181.8069      
   2309.5000      
   2537.8169      
   2699.5181      
   2847.5903      
   3035.0559      
   2922.7717      
   3142.0422      
   3289.8406      
   3677.6726      
   3882.3826      
   4453.4956      
   4675.9390      
   5373.5371      
   6525.3789      
   9232.5146      
  14364.3145      
  17617.5195      
  12933.9160      
   8063.6143      
   5778.2759      
   4752.5112      
   3821.6416      
   3540.2756      
   3355.0015      
   3047.7961      
   3059.7002      
   3232.3647      
   3690.6833      
   5590.4170      
   8102.3604      
   7011.2363      
   5034.3525      
   4120.7500      
   4031.1289      
   4237.2720      
   4684.9126      
   4947.8975      
   4994.4468      
   4451.5811      
   4285.7783      
   4046.8660      
   4025.3015      
   4145.9731      
   4217.4380      
   4712.2583      
   5479.5483      
   6138.4912      
   7092.3096      
   6963.2373      
   5445.3545      
   4940.4863      
   5235.4111      
   6734.7813      
   9121.7773      
  13662.0215      
  18930.5879      
  19695.7266      
  14904.7676      
  10470.3965      
   8260.9658      
   6975.9316      
   6626.7925      
   6500.1577      
   6498.4941      
   6633.7832      
   6355.5864      
   5377.4907      
   4698.9551      
   3883.3918      
   3259.6016      
   2718.5354      
   2465.4771      
   2143.5129      
   1978.4564      
   1960.0653      
   1754.0435      
   1661.4988      
   1794.9167      
   1724.6691      
   1730.3252      
   1720.5398      
   1785.2271      
   1491.5254      
   1650.5880      
   1688.4457      
   2017.2798      
   2291.6277      
   3068.2500      
   3212.5911      
   3463.0813      
   3095.0859      
   2333.5310      
   1970.7263      
   1702.8318      
   1397.6497      
   1124.9866      
   1058.0063      
   1034.8391      
    949.0649      
    896.1309      
    907.0283      
   1255.6913      
   1145.8234      
   1230.9994      
   1047.4066      
    947.9843      
    954.8232      
   1006.6030      
    857.1735      
    846.3785      
    911.5015      
    880.3332      
    934.6709      
    872.2787      
    925.2379      
    761.4631      
    802.0145      
    864.3057      
    951.2204      
   1004.3507      
    891.5389      
    822.4934      
    940.5012      
    879.4507      
    851.0339      
    986.8764      
    864.6591      
    879.6071      
    732.3066      
    847.1661      
    890.5734      
    870.2739      
    970.8134      
   1085.4369      
    972.2505      
    916.5546      
    682.8022      
    778.5195      
    927.5361      
    730.0374      
    603.7360      
    688.3762      
    801.6755      
    906.0020      
    831.5031      
    832.8948      
    963.1890      
   1042.2616      
    868.2194      
    885.8790      
   1188.8561      
    672.6218      
    955.2566      
    854.8611      
    883.3598      
    758.9630      
    540.0846      
    635.2355      
    936.4514      
    906.6106      
    714.6730      
    848.3912      
    832.1863      
    818.6957      
    806.5660      
    942.1503      
    814.7523      
   1153.8239      
    820.2372      
    545.9211      
    882.6035      
    871.7956      
    832.5603      
    800.1432      
    825.8704      
    782.6584      
    719.3100      
    877.4410      
    873.4109      
    827.4100      
    736.9730      
    862.6807      
    727.6137      
    930.5878      
    785.6902      
    593.3644      
    729.1082      
    802.0128      
    776.3851      
   1195.8046      
    928.1268      
    756.2531      
    846.8337      
    846.8701      
    873.9973      
    791.4954      
   1209.7963      
   1128.8903      
   1124.8188      
   1119.3788      
   1214.0629      
   1129.0348      
    799.8545      
    885.1701      
    974.8633      
   1233.4922      
    913.7687      
    999.4835      
   1294.1969      
   1005.0028      
   1250.1840      
   1379.9481      
   1089.7441      
   1082.9426      
   1284.7623      
   1345.5219      
   1284.8334      
   1305.5518      
   1326.2909      
   1233.9915      
   1481.4928      
   1417.6932      
   1480.1738      
   1535.8494      
   1388.7129      
   1304.4563      
   1334.8585      
   1714.8990      
   1531.8486      
   1596.0162      
   1854.2863      
   1812.0306      
   1843.0714      
   1841.6942      
   1991.6697      
   2179.7161      
   2637.2737      
   3085.7666      
   3862.2656      
   5278.3179      
   7605.2627      
   9719.7334      
   9566.3760      
   7954.3462      
   6010.2031      
   4820.1528      
   4006.9729      
   3431.3374      
   3414.8203      
   3056.5205      
   3019.5300      
   3142.7058      
   3121.9255      
   3332.4075      
   3587.0969      
   3795.5393      
   3971.8984      
   4541.7441      
   4850.8906      
   5915.5435      
   6834.2153      
   8351.3213      
   9908.1621      
  10399.9043      
   9884.6875      
   8649.7500      
   7286.7637      
   6552.3003      
   5548.6709      
   5082.0723      
   4800.2983      
   4250.9775      
   4007.8564      
   4077.3367      
   4176.4814      
   4032.6265      
   3771.8164      
   3836.0342      
   3940.3445      
   4065.1782      
   4520.4751      
   4719.6128      
   4237.3398      
   4000.5178      
   3866.8904      
   3682.2368      
   3975.9839      
   4161.4004      
   4512.8716      
   4704.0151      
   4799.3730      
   5215.2183      
   5565.8906      
   6120.8389      
   6780.0361      
   7827.7949      
   9475.4619      
  11796.0840      
  15073.2871      
  17105.9609      
  16914.2871      
  15680.0107      
  14928.3086      
  15280.5107      
  16213.0850      
  18087.9785      
  20525.1699      
  23040.7715      
  23492.2070      
  22677.0176      
  19401.9746      
  16613.0742      
  14493.6768      
  12506.6719      
  11558.1650      
  11147.9521      
  10905.5195      
  10966.9678      
  11205.9375      
  11405.5000      
  12052.6514      
  11900.9980      
  11393.0781      
  10730.5371      
  10905.7754      
  11807.5947      
  13462.2080      
  15616.2773      
  17615.7383      
  19658.8340      
  21519.5762      
  23462.1289      
  25801.5176      
  27292.2012      
  25990.5938      
  22085.4492      
  17916.6582      
  14982.5342      
  13433.0859      
  12759.8857      
  12610.3652      
  13562.7881      
  14785.3359      
  15863.5635      
  15986.6699      
  14651.5615      
  12331.5059      
  10470.8184      
   9048.9775      
   8110.4844      
   6880.4341      
   6454.3047      
   5513.6582      
   5129.9160      
   4275.4521      
   4171.3267      
   3910.5967      
   3416.8652      
   3434.9500      
   3244.5762      
   3247.5945      
   2972.8674      
   2758.2227      
   2208.2158      
   2371.9590      
   2333.1182      
   2403.7410      
   1956.3125      
   1850.3314      
   1892.7096      
   1784.1937      
   1749.0839      
   1645.3970      
   1444.8553      
   1483.7566      
   1510.1985      
   1613.3712      
   1144.4382      
   1593.8849      
   1436.7157      
   1276.4193      
   1443.7098      
   1265.4611      
   1528.5292      
   1578.7192      
   1523.0214      
   1630.4387      
   1454.9893      
   1478.6222      
   1323.5721      
   1402.4027      
   1330.5334      
    865.6096      
   1316.7916      
   1194.3239      
   1065.6375      
   1065.6672      
   1098.4933      
    888.8253      
    757.6923      
   1003.0414      
    763.1456      
    871.3243      
    849.6869      
   1234.4661      
   1034.5402      
   1087.8242      
    855.2191      
   1074.2168      
   1098.8472      
   1157.7537      
   1497.3651      
    928.5886      
   1135.9174      
   1025.2598      
   1188.0774      
   1146.9645      
   1034.8914      
    958.6586      
   1179.9602      
    965.5157      
    820.4507      
    779.9529      
    904.4771      
   1182.8483      
   1031.0311      
    695.1800      
    719.4330      
    969.8282      
    873.4680      
    776.1341      
    679.1889      
    645.6370      
    935.9872      
   1065.4077      
    561.3008      
    725.0770      
    884.5394      
    664.6085      
    914.4335      
    963.3702      
    877.8755      
    928.0953      
    959.3771      
    978.4485      
    670.1810      
    718.6294      
    730.7766      
    705.2273      
    506.9152      
    572.4312      
    960.9650      
    848.3915      
    853.8336      
    735.0176      
    731.0021      
    626.1895      
    771.5022      
    776.9286      
    942.1604      
    999.3209      
   1027.9637      
    911.0119      
   1013.0248      
    832.4898      
    839.2811      
    888.0651      
    734.0319      
    874.5701      
    769.1396      
    730.0749      
    792.1409      
    843.5353      
    958.8575      
    946.6528      
    851.7401      
    741.0187      
   1088.4755      
    738.3784      
    807.2193      
    735.7399      
    478.4601      
    873.5994      
    868.2087      
    688.7405      
    718.3678      
    803.3587      
    695.5477      
    807.4655      
    691.5668      
    791.3101      
    937.6061      
    676.8611      
    982.5301      
    863.0897      
    760.4102      
    410.9753      
    384.4295      
    748.3568      
    498.9544      
    970.4755      
    929.7278      
    851.1201      
    977.3578      
   1135.7266      
   1046.9016      
    856.6449      
   1118.0125      
   1049.7115      
    955.7583      
   1064.7799      
    980.2923      
    850.0357      
    661.3025      
   1040.3195      
    804.1400      
   1085.4308      
   1376.9166      
    890.8347      
   1141.6062      
    748.9449      
   1301.0732      
   1295.5844      
   1306.6410      
    850.3539      
    904.5801      
    728.8931      
    938.5686      
    697.9890      
    816.6705      
   1005.3018      
   1033.9478      
   1195.4292      
    816.7753      
    800.5862      
   1006.7935      
    854.7287      
   1316.6654      
   1521.7335      
   1595.6072      
   1587.2620      
   1682.3323      
   1858.0465      
   1751.1044      
   1810.1864      
   1402.5592      
   1427.5175      
   1766.6605      
   1524.7760      
   1412.3541      
   1341.8473      
   1161.6263      
   1325.3326      
   1089.1315      
    958.2955      
    980.0827      
    891.8255      
    914.9106      
    817.4222      
    946.1926      
    782.3552      
   1078.4044      
    863.5229      
    996.6204      
    836.5055      
   1146.9106      
   1074.4329      
   1289.8591      
   1364.4143      
   1136.0544      
   1090.9307      
   1226.6531      
    859.7155      
    965.5788      
    567.7119      
    720.7300      
    693.8451      
    714.0505      
    900.5198      
    799.0392      
    845.0272      
    714.1509      
    800.4654      
    780.2388      
    933.2402      
    778.9391      
    578.7184      
    948.2573      
    820.8854      
    713.0048      
    829.0455      
    799.3392      
    981.0169      
    694.2702      
    804.8159      
    745.4738      
    576.2899      
    938.9972      
    599.1014      
    795.4869      
    777.9619      
    584.4441      
    803.6642      
    712.0054      
    405.7858      
    581.8648      
    807.8143      
    607.3612      
    795.7083      
    905.3570      
    824.1296      
    752.6076      
    997.8426      
    912.2390      
    939.4146      
    805.3320      
    423.3630      
    622.3488      
    559.4382      
    766.2866      
    798.7005      
    712.4449      
    878.5616      
    769.0799      
    793.3966      
    781.2715      
    717.9503      
    646.7378      
    471.5768      
    644.1014      
    805.6950      
    638.7830      
    553.0909      
    731.5818      
    900.5364      
    859.9129      
   1022.9461      
    720.9071      
    614.8117      
    846.4711      
    809.9881      
    823.5274      
    793.8283      
    793.8521      
    838.4730      
    861.5038      
    983.6887      
   1031.3870      
    758.8911      
    848.0621      
    780.5191      
    607.0800      
    694.3532      
    827.8668      
    691.7123      
    848.2037      
    711.9346      
    845.5457      
    821.2255      
    721.4281      
    868.6279      
    716.0899      
    559.1497      
    697.3016      
    675.8165      
    733.6860      
    586.0027      
    899.9615      
    565.9781      
    661.1563      
    657.1523      
    646.4366      
    645.1177      
    503.3060      
    616.9991      
    618.3630      
    403.5171      
    670.7452      
    408.8782      
    594.3377      
    771.7750      
    707.1351      
    819.0797      
    645.3718      
    687.0317      
    907.1587      
    770.5639      
    676.3487      
    781.4033      
    407.8018      
    522.3831      
    711.4016      
    466.4146      
    454.4523      
    704.7419      
    826.1356      
    663.1223      
    628.2529      
    931.8830      
    635.0038      
    737.1840      
    660.5496      
    617.6404      
    594.8860      
    777.7186      
    480.0339      
    649.9226      
    762.9499      
    628.5018      
    723.9220      
    377.7328      
    470.8424      
    687.6678      
    680.9688      
    776.5958      
   1050.6842      
    914.6457      
    857.7482      
    830.7111      
    818.5667      
    819.9407      
    729.5757      
    878.1717      
    749.8287      
    890.4128      
    811.9443      
    484.5038      
    432.5900      
    679.9608      
    770.1840      
    684.0359      
    748.6567      
    737.9002      
    804.0164      
   1030.6472      
    698.9360      
    768.9912      
    657.3247      
    875.8159      
    686.9230      
    999.4454      
    725.9795      
   1070.3916      
    825.8568      
    757.0309      
    777.2821      
   1078.6731      
   1063.6750      
    774.6489      
    992.8345      
    987.4147      
    893.7181      
    801.7310      
    919.5330      
   1072.0190      
    915.5049      
   1536.6508      
   1355.0234      
    892.5158      
   1327.4529      
   1341.2783      
   1546.5052      
   1959.3594      
   2242.8337      
   2978.7932      
   3591.8533      
   3481.5916      
   3168.5964      
   2314.6814      
   1752.2194      
   1549.4841      
   1413.4165      
   1377.4606      
   1155.8691      
    905.0615      
   1271.2838      
   1012.4799      
    876.6600      
   1009.7977      
   1376.2269      
   1238.3721      
   1412.2448      
   1408.1132      
   1408.1344      
   1869.3645      
   1720.2874      
   1859.5310      
   2133.2776      
   2253.3979      
   2929.1724      
   3173.5515      
   3761.0623      
   4207.2954      
   4712.5225      
   5166.9863      
   5800.2158      
   6530.4663      
   6679.5400      
   5303.1206      
   4061.9133      
   3356.0244      
   2667.0747      
   2568.1663      
   1852.8381      
   1875.4286      
   2028.3402      
   2069.5771      
   2086.6770      
   2066.7769      
   2071.0642      
   1805.0940      
   1841.7277      
   1741.8950      
   1653.6548      
   1723.6980      
   1669.0831      
   1437.9147      
   1799.6117      
   1683.1429      
   1892.6797      
   2041.4358      
   2259.8193      
   2442.5942      
   2712.7646      
   3111.8269      
   3457.2190      
   3690.2341      
   3792.3228      
   3735.9263      
   3323.6565      
   2515.0857      
   2232.8013      
   1818.2134      
   1714.2731      
   1224.3779      
   1329.0474      
   1658.3217      
   1477.1891      
   1117.5208      
   1218.9833      
   1239.6180      
   1342.9731      
   1520.3674      
   1394.1521      
   1348.5566      
   1403.8798      
   1566.3868      
   1546.9072      
   1394.2532      
   1208.1981      
   1020.8262      
   1184.9064      
   1065.8741      
   1135.6124      
    874.1896      
   1072.7603      
    989.6287      
    814.7281      
   1006.0020      
    908.1728      
    805.3323      
    680.0701      
    575.5087      
    568.8389      
    794.6096      
    642.5563      
    889.3317      
   1090.7556      
    676.1781      
    794.7090      
    611.8181      
    539.5894      
    898.9409      
    989.9671      
   1086.7963      
    761.1022      
    683.0557      
    707.2753      
    801.6389      
    730.1936      
    648.2210      
    835.4796      
    571.8906      
   1107.4777      
   1415.7322      
    963.0023      
   1176.0022      
   1040.6442      
   1184.2699      
   1141.8032      
    663.1816      
   1042.0846      
    906.1115      
   1055.7670      
    833.0292      
   1062.6289      
    578.8547      
    795.2587      
    872.3491      
    363.1048      
    802.0690      
    823.7025      
    884.6200      
    789.9748      
    500.1912      
    220.4019      
    781.9362      
    430.9922      
    890.1539      
    769.8551      
    761.7845      
    597.8848      
    751.0402      
    609.9769      
    528.4084      
    860.4913      
   1072.5886      
    555.1858      
    967.7186      
    883.5902      
    999.0468      
   1213.7285      
    950.1260      
    863.3519      
    736.4506      
    479.2629      
    693.4329      
    790.4349      
    507.3201      
    353.0723      
    849.9508      
    893.3044      
    555.4713      
    779.7549      
    871.6842      
    742.0459      
    377.0782      
    547.5469      
    775.8017      
    676.2091      
    440.9324      
    827.1696      
    627.9520      
    757.0190      
    843.4514      
    828.5983      
    832.6718      
    882.7649      
    994.1290      
    668.3381      
    805.7202      
    983.3027      
    693.9225      
    834.1533      
    839.5801      
    884.2693      
    677.8693      
    710.1525      
   1046.0884      
    828.8595      
    707.5175      
    746.5760      
    997.1122      
   1057.0963      
    727.7777      
    398.8615      
    605.6171      
    846.5852      
    788.5043      
    704.9934      
    738.6589      
    706.3770      
    891.3586      
    675.4965      
    589.6951      
   1083.2560      
    957.9307      
    561.6579      
    761.7125      
   1105.1945      
    786.0252      
    817.0996      
    647.4700      
    930.8954      
   1153.1835      
    819.8754      
   1017.9803      
    981.2451      
    924.2007      
    761.9131      
   1004.4334      
   1099.9441      
   1093.1278      
    867.3621      
   1237.0687      
   1101.3854      
    988.2099      
    899.9467      
    786.3522      
    924.3999      
   1336.3470      
   1187.7610      
    984.2375      
   1209.7557      
   1139.8517      
   1111.1344      
   1068.7986      
    917.7584      
   1048.3647      
   1178.3058      
   1208.5098      
   1088.0070      
   1499.9685      
   1386.3169      
   1677.1041      
   1295.2458      
   1350.4399      
   1576.5964      
   1960.1249      
   1890.8607      
   1840.1038      
   1859.8546      
   1923.4076      
   1851.4313      
   2087.9954      
   2209.2974      
   1744.5905      
   2378.7090      
   1916.4467      
   2209.3679      
   1994.3400      
   1990.1053      
   2156.5520      
   1929.2604      
   2072.5195      
   2540.7097      
   2747.5027      
   2220.9551      
   2368.8240      
   2587.2246      
   2458.2898      
   2550.9688      
   2495.9255      
   2661.4978      
   3040.3948      
   2944.4038      
   3033.0315      
   3511.1587      
   3232.1362      
   3556.4990      
   3579.2017      
   3948.1531      
   3920.5334      
   3966.6274      
   4386.8418      
   4958.0933      
   5105.8525      
   5612.0352      
   6492.7939      
   7281.1997      
   7961.5703      
   9166.0830      
  10459.2471      
  12774.4766      
  16256.4463      
  22595.6211      
  34329.8789      
  56487.0313      
  77073.5313      
  67913.5234      
  54516.4961      
  55010.0078      
  61610.6406      
  69735.7500      
  71606.4844      
  61270.0156      
  49550.1250      
  37992.1719      
  28352.1836      
  21543.2500      
  16654.3203      
  13765.2061      
  11217.5186      
   9578.9697      
   8487.3105      
   7421.1650      
   7004.9951      
   6597.5200      
   6260.8340      
   6117.7188      
   5709.8203      
   5466.6895      
   5042.1221      
   5153.2427      
   5676.8887      
   5537.1523      
   5858.9756      
   5820.8154      
   5912.2300      
   6520.7896      
   7524.3613      
   8751.7637      
  10707.9385      
  12934.4980      
  16530.9023      
  19741.1465      
  21323.4922      
  20628.8477      
  18505.1133      
  17122.1855      
  16379.6631      
  16044.4482      
  16844.3828      
  17320.7734      
  19201.3965      
  20674.6797      
  23394.6953      
  24436.0098      
  25044.8711      
  25917.5840      
  25106.9961      
  23956.9238      
  21804.4941      
  20483.4434      
  19221.6680      
  19357.0977      
  18695.8750      
  19432.3633      
  19765.0195      
  21405.4355      
  23541.9688      
  25868.6816      
  28966.5273      
  32930.6719      
  37721.7109      
  42941.3672      
  49841.7930      
  58216.3984      
  66637.1953      
  72715.2656      
  80437.4219      
  78599.6406      
  74174.6563      
  62595.2344      
  50115.6875      
  40410.5430      
  32117.9668      
  25568.9375      
  21497.0449      
  18704.6875      
  16234.9980      
  13867.6611      
  12015.8818      
  10867.3701      
  10559.2861      
   9061.3477      
   8674.2373      
   8381.4434      
   8079.3789      
   7298.7266      
   6929.7290      
   6610.7344      
   6446.8384      
   5696.1729      
   5946.6367      
   5742.4517      
   5544.8818      
   5384.7139      
   4409.0854      
   3979.3279      
   3891.8367      
   3991.6667      
   3784.8340      
   3649.4380      
   3466.5493      
   3619.1438      
   3669.2202      
   3267.1277      
   3282.0837      
   3510.3428      
   3334.4824      
   2956.9919      
   2430.3323      
   2873.1067      
   2136.2712      
   2400.0916      
   2114.9207      
   2693.0593      
   2401.5793      
   2282.2366      
   2414.5891      
   2444.9131      
   2253.6101      
   1912.1410      
   1705.3325      
   1831.7659      
   1671.7625      
   2056.7490      
   1803.6639      
   1845.9166      
   1868.4889      
   1657.8553      
   2147.9653      
   1664.8771      
   1553.2555      
   1604.8408      
   1610.4374      
   2133.7822      
   2015.7394      
   2095.3452      
   1902.5182      
   2180.9421      
   2149.5488      
   1954.8774      
   1936.5017      
   1994.5754      
   2168.1658      
   2271.2026      
   2064.1870      
   1823.6941      
   1305.5492      
   1736.5975      
   1691.7644      
   1057.4059      
   1349.7549      
   1381.5460      
   1528.5493      
   1242.3433      
    979.8427      
    888.9141      
   1175.1238      
   1316.7480      
   1549.5140      
   1556.4904      
   1466.1652      
   1475.8920      
   1175.2163      
    739.1087      
   1253.5111      
   1153.3381      
   1731.2795      
   1499.5898      
   1680.8738      
   1694.8894      
   1344.5399      
   2030.5065      
   1661.3490      
   2158.6516      
   2280.2871      
   2421.2778      
   3026.0042      
   3275.7500      
   3587.0300      
   3251.8872      
   3538.6814      
   3190.7954      
   2975.8645      
   2911.0276      
   2635.8735      
   2307.7207      
   1730.1821      
   1614.0770      
   2035.0256      
   1782.1713      
   1118.1356      
   1440.2926      
   1209.9700      
   1576.5111      
   1245.7180      
   1391.8981      
    915.2953      
    970.9830      
   1561.2628      
   1162.0739      
    994.1478      
    992.8036      
   1614.3032      
   1398.9342      
   1070.5250      
   1483.5018      
   1189.5956      
   1324.4027      
   1426.6935      
   1381.0477      
   1454.4408      
   1547.5358      
   1631.2068      
   1823.3234      
   2418.9805      
   1574.0552      
   1673.2031      
   2240.8040      
   1953.2533      
   2045.4310      
   2365.7542      
   2339.8730      
   2403.2358      
   1875.6121      
   2222.2991      
   2761.9780      
   2481.2661      
   2836.7307      
   2690.4419      
   2516.0430      
   2955.9302      
   3645.3994      
   3507.7642      
   3710.7410      
   3895.4922      
   4041.5342      
   4097.1147      
   4461.4243      
   4046.2029      
   4359.7134      
   4244.4146      
   3868.0242      
   3625.8479      
   2772.4875      
   2788.6060      
   3132.2639      
   2929.6355      
   3055.1807      
   2996.0413      
   3548.7747      
   3582.0496      
   3621.4338      
   3627.5098      
   3520.1416      
   3668.4985      
   3747.5959      
   4571.7446      
   4493.1064      
   4442.9170      
   4761.5962      
   5286.4639      
   5457.4321      
   5273.5166      
   5441.1274      
   5945.9556      
   5884.3735      
   6709.5923      
   6813.0200      
   7524.5723      
   7354.4580      
   8074.9419      
   8362.2158      
   9947.6318      
  10246.0439      
  11525.6973      
  12424.2178      
  14737.1348      
  16897.6504      
  20123.5820      
  24326.0586      
  28944.2422      
  32549.0254      
  33995.1484      
  33665.7383      
  32718.3418      
  33438.3047      
  35985.2266      
  39731.6914      
  49178.8867      
  59623.9961      
  75125.8984      
  93678.1719      
 107881.0000      
 103145.5000      
 103506.8594      
  98878.6641      
  88492.5234      
  76530.1406      
  61098.0664      
  51288.7891      
  41278.4727      
  33218.2656      
  28723.0195      
  25684.4961      
  23762.7969      
  22600.5117      
  21384.1387      
  21258.9121      
  21349.6621      
  21661.9902      
  22673.2793      
  25235.7090      
  26826.7480      
  30770.3340      
  37036.0820      
  49091.1289      
  57755.6445      
  71908.5313      
  76350.4297      
  74233.2031      
  66761.8125      
  62855.5156      
  58377.1680      
  52732.3672      
  47174.3633      
  41464.0313      
  34722.4570      
  28897.8750      
  24802.3770      
  22162.6660      
  19922.4473      
  18657.9570      
  17485.2188      
  17003.1328      
  16210.9258      
  16046.4561      
  15576.8848      
  14872.2178      
  14642.5830      
  15666.1484      
  15194.0303      
  16086.9238      
  16747.5566      
  16940.4004      
  16561.4180      
  16841.2168      
  15905.7842      
  15552.3076      
  16112.2969      
  15885.7734      
  15730.9434      
  15968.6211      
  16885.6484      
  17911.9023      
  18776.4551      
  21048.1387      
  22374.6055      
  24178.8613      
  25591.8340      
  26288.0039      
  24853.4277      
  23216.0879      
  20124.7559      
  17619.7754      
  15230.9180      
  12714.1465      
  11251.9521      
  10287.1563      
   9391.6924      
   9401.3057      
   8891.9844      
   8755.0820      
   8899.5352      
   8982.4707      
   9491.8057      
   9825.6445      
  10531.4639      
  10837.1309      
  10802.5400      
  10441.1533      
   9164.4688      
   8224.2725      
   7220.4282      
   5756.6743      
   6009.3872      
   4201.4126      
   4537.3511      
   4009.7786      
   3636.9929      
   3290.7407      
   3202.7175      
   3888.5049      
   3781.5171      
   3807.4722      
   2965.6089      
   2675.2944      
   2971.5393      
   2803.9319      
   2770.2659      
   3658.3770      
   3620.4819      
   2834.7747      
   2874.4351      
   2692.8984      
   2200.5156      
   2053.7317      
   2018.2487      
   2002.6586      
   2173.4224      
   1403.2284      
   1695.5261      
   1666.1528      
   1840.2012      
   1546.2020      
   1437.9069      
   1262.5945      
   1247.4802      
   1211.7776      
   1600.6042      
    989.0735      
   1193.9790      
   1356.3916      
   1044.9459      
    796.7336      
   1222.8529      
    976.9135      
    976.9266      
   1060.0142      
   1606.3152      
    728.0829      
   1207.8291      
    713.3097      
    718.7040      
   1927.9673      
   1039.6503      
   1483.9474      
   1266.9974      
   1170.8944      
    926.8311      
    604.7193      
    829.3665      
   1000.2474      
   1340.1034      
   1414.7458      
   1725.3960      
   1190.1919      
   1038.4457      
   2111.1882      
   1895.6703      
   1376.0986      
   1290.5808      
   1921.1344      
   1605.2339      
   2114.1152      
   2067.1687      
   1489.7622      
   1940.9919      
   1057.6775      
   1686.3566      
   1679.3728      
   1885.9479      
   1297.6095      
   2734.5535      
   3255.8669      
   2790.1616      
   3124.8896      
   2696.6431      
   1689.2711      
   1959.5383      
   1502.4409      
   1174.0626      
   1499.6881      
   1770.6599      
   2215.7173      
    770.4222      
    752.9170      
   1150.8510      
    992.5501      
    831.2117      
    789.3663      
    783.9824      
    110.8805      
    902.9920      
   1105.7982      
   1541.5597      