  11100 18  1 01NYVO4.SP PYVO4  MS  .0000 # S1 031188 00.01   1         
  PROGRAM PE-CONVERT VERSION 02.30                                      
  USER MS  DATE & TIME  1988 03 18 12.59 19.82    1.6000    295K A       
 AU1 ND 100     0     0 YVO4            0.325000 - 0.840000 .00020       
 FILE NAME ON PE-3600 = 001 NYVO4.SP      ON PC = 001NYVO4.SP            
 NO_POINTS  =  2576.    pts   DATA_INTV = 0.000200 µm                    
 MIN_LAMBDA =  0.325000 µm     MIN_DATA =   0.                           
 MAX_LAMBDA =  0.840000 µm     MAX_DATA =   .598120E6                    
 SCANSPEED  = .015      µm/minSLITWIDTH =  0.00020 µmITA =   0.          
       RESP =   0.5     sec        ISMS =   0.       DATE=88/03/11       
       INST = 509.                    ? =   0.                           
 THIS IS ND:YVO4 SPECTRA FROM A SAMPLE PROVIDED BY MILT BIRNBAUM         
 THE SAMPLE IS MULTI-COLOR THAT IS NOT UNIFORM. SCATTERING LOSSES        
 AT THE SURFACE WERE LARGE BECAUSE OF POOR SURFACE QUALITY.INTERNA       
 LOSSES UNKNOWN. SEE NYVO3 FOR MORE COMMENTS. STORM                      
 shortside is A (or B) axis              (å polar or ordinary ray)       
 converted by Mark Storm. header added by hand                           
 ND:YVO4,1%ND,1.60MM THICK,BIRNBAUM,SHORT SIDE,STORM                     
  EOH     (1X,F11.4)                                                     
  2576.           
 356118.2500      
 357441.7188      
 404893.4063      
 356141.0938      
 442792.0625      
 468141.1563      
 357479.5625      
 598121.3125      
 339182.8750      
 433195.1875      
 352404.6250      
 351198.4375      
 399530.2188      
 421090.1563      
 364569.0313      
 379649.0000      
 424901.2813      
 460868.8750      
 529539.4375      
 511566.5938      
 402248.8750      
 575646.2500      
 379700.0313      
 417590.7500      
 448377.7188      
 411020.0938      
 575646.2500      
 381659.1875      
 402306.4063      
 358991.8125      
 414261.5625      
 364691.7188      
 351350.4063      
 402341.7813      
 359027.0938      
 575646.2500      
 411097.9063      
 414310.7188      
 405154.9688      
 379820.3125      
 486374.0000      
 575646.2500      
 529709.5000      
 405189.4688      
 438077.1563      
 399764.9688      
 486415.1875      
 476787.5625      
 425126.9375      
 383796.3125      
 367872.2813      
 397254.2500      
 438131.3750      
 438138.0938      
 429200.9688      
 408178.1250      
 468502.3438      
 497884.1875      
 575646.2500      
 468522.2188      
 360577.5000      
 390237.6875      
 575646.2500      
 443206.9063      
 575646.2500      
 402558.2188      
 378135.5938      
 402571.2188      
 425259.2813      
 433611.4375      
 425272.1563      
 575646.2500      
 448703.3438      
 411344.9063      
 388128.5625      
 383966.7188      
 381988.7813      
 399975.2500      
 575646.2500      
 369643.6250      
 334903.2813      
 369656.1875      
 323981.9688      
 333110.3125      
 333116.5625      
 301554.3125      
 284667.3750      
 271388.4688      
 254589.0469      
 245178.9375      
 240553.3281      
 226612.9844      
 219131.5156      
 207121.5781      
 198692.8906      
 189094.2188      
 175906.1719      
 169870.1875      
 158864.0625      
 154473.9375      
 147426.1250      
 139746.6250      
 132332.8281      
 128918.0625      
 121592.7578      
 115255.7969      
 109653.1563      
 105322.0547      
  98332.2578      
  94425.5703      
  89834.6016      
  86326.6016      
  81192.5625      
  77932.4844      
  73380.5625      
  69886.1016      
  68186.9375      
  65614.6406      
  61994.6250      
  58915.5664      
  56384.0898      
  54156.3086      
  51365.0586      
  49601.9023      
  46693.5820      
  45805.1523      
  44217.2344      
  40088.2305      
  38263.6719      
  37739.1875      
  36065.7969      
  35910.5313      
  33419.2266      
  32730.3770      
  32547.2246      
  31746.2988      
  30239.2598      
  29723.2148      
  28081.6348      
  28310.1172      
  30471.1016      
  33985.5273      
  36193.4531      
  40275.0508      
  44606.0039      
  54721.8633      
  69888.1797      
  90388.5391      
 100652.4297      
  82195.2891      
  60894.8750      
  49395.1133      
  43448.7305      
  40534.0273      
  41784.8945      
  42515.6680      
  42495.5078      
  42204.6367      
  42888.8945      
  46152.0977      
  47963.2422      
  47535.0508      
  42298.4180      
  36736.6797      
  32998.7891      
  31308.8535      
  31186.6074      
  30860.2793      
  29694.6992      
  29259.5527      
  30099.7285      
  30852.6895      
  33661.9258      
  36487.3867      
  36893.8047      
  35862.2461      
  31082.3535      
  29775.0957      
  26300.6719      
  26436.5137      
  27252.0762      
  27529.6211      
  27574.6016      
  28344.1641      
  33862.2422      
  35434.4570      
  38039.6133      
  31328.0918      
  23178.6543      
  19453.0137      
  19352.7129      
  19808.9648      
  20899.8047      
  19601.4492      
  17016.7363      
  15389.4785      
  14566.9346      
  15850.1211      
  15954.3750      
  16141.8848      
  15091.1699      
  13073.8721      
   9574.0303      
   8603.4238      
   7633.2886      
   5798.4204      
   5915.9883      
   5812.6021      
   4852.5850      
   4783.3501      
   4204.1392      
   3530.6492      
   4424.4023      
   4686.7573      
   3648.9006      
   3944.4500      
   3667.2847      
   2928.0527      
   4691.5767      
   3477.4268      
   2829.9788      
   3202.5017      
   2888.4070      
   2875.0879      
   2776.8083      
   2683.1448      
   2893.2603      
   1402.9008      
   3234.4587      
   2168.2229      
   2407.6257      
   2323.3899      
   1303.2435      
   2005.1349      
   1763.1033      
   1292.3943      
   2755.0547      
   2514.5254      
   1284.6838      
   1895.3052      
   2585.6445      
   1759.0781      
   1274.4048      
   1417.5969      
   1513.7477      
   2310.2209      
   1908.4910      
   1904.0541      
   2036.1227      
   2856.8916      
   3937.8723      
   2456.0125      
   2124.0264      
   1246.1461      
   3003.6680      
   2000.2761      
   2931.7478      
   1578.7606      
   2815.2739      
   4441.7095      
   2423.6226      
   2017.0421      
   1530.0762      
   3185.3704      
   2320.9956      
   1787.8447      
   3445.1841      
   1424.5624      
   2033.2927      
   3111.9395      
   1202.4987      
   2861.0559      
   1659.3801      
   2124.5491      
   1702.6611      
   1991.9443      
   2295.7764      
   1322.3087      
   2308.4089      
   1823.9569      
   1648.5461      
   1963.7795      
   1547.4990      
   2196.3662      
   2006.7142      
   1520.3896      
   2036.7787      
   2133.2180      
   1680.9276      
   1759.3019      
   1894.7473      
   2087.6199      
   1788.8025      
   2452.9534      
   1469.2645      
   1791.9637      
   2081.0940      
   1699.2708      
   1646.4250      
   1628.5273      
   2339.1741      
   2153.5637      
   2104.6750      
   2931.8899      
   1901.7571      
   1403.6748      
   2681.2244      
   2605.2844      
   1663.5901      
   1632.5388      
   2184.0833      
   1470.3335      
   1296.0471      
   2076.8887      
   2181.8135      
   1311.8544      
   1659.3378      
   2285.6855      
   1990.5835      
   1235.9893      
   2011.3037      
   1464.8732      
   1173.6987      
   1711.9565      
   1807.4254      
   1375.6250      
   1535.8046      
   1409.1318      
   1704.4469      
   1725.6144      
   1589.8375      
   1142.3671      
   1458.0609      
   1348.8947      
   2089.7505      
   1200.3278      
   1550.9980      
   1480.7576      
   1610.5197      
   1666.4269      
   1409.1908      
   2040.7466      
   1559.7882      
   1907.9009      
   2095.4351      
   1323.2257      
   1709.1604      
   1235.1863      
   1869.0551      
   1881.3691      
   1933.0162      
   1526.8822      
   1739.3051      
   1183.0945      
   1563.5948      
   1771.7291      
   1314.7709      
   1257.7261      
   1621.1648      
   1424.9397      
   1619.4805      
   1237.1615      
   1033.5497      
   1153.4379      
   1381.7194      
   1476.2042      
   2011.0658      
   1556.9019      
   1244.1575      
   1494.3541      
   1246.7168      
   1492.5457      
   1931.1777      
   1586.1862      
   1476.7838      
   1419.5266      
   1414.2629      
   1374.3702      
   1616.2139      
   2068.6213      
   1138.3376      
   1870.0680      
   1516.8604      
   1390.2683      
   1057.0160      
   1211.1740      
   1141.2157      
   1715.9562      
   1841.1639      
   1731.2994      
   1025.3611      
   1664.0220      
   1580.4950      
   1445.1250      
   1387.8436      
   1664.1605      
   2072.6692      
   1840.3235      
    901.3143      
   1395.5480      
   1407.4506      
   1540.5643      
   1561.1390      
   1179.7876      
   1264.9203      
   2080.0413      
   1370.6550      
   1516.6035      
   1441.9146      
   1744.2500      
   1357.5519      
   1872.4369      
   1710.3782      
   1272.1625      
   1327.0996      
   1719.8937      
   1809.9672      
   1813.1221      
   1477.9878      
   1411.9644      
   1679.2058      
   1478.7502      
   1603.0844      
   1836.2772      
   1440.5577      
   1344.3593      
   1149.3086      
   1126.6085      
   1241.5813      
   1175.7975      
   1024.1981      
   1255.1312      
   1296.9797      
   1494.2823      
   1015.0165      
   1630.2289      
   1266.1321      
   1441.6835      
   1431.7656      
   1060.2806      
   1489.6610      
   1548.8914      
   1331.7086      
   1546.2700      
   1467.1592      
   1370.9075      
    991.2960      
   1463.1963      
   1418.6986      
   1150.4423      
   1252.3027      
   1622.1006      
   1573.1448      
   1321.4680      
   1066.5293      
   1629.5962      
   1451.0313      
   1471.2374      
    721.8304      
   1059.7899      
   1024.1287      
   1569.3345      
   1745.3884      
   1234.6039      
   1314.9417      
   1042.9641      
   1333.6458      
    864.7354      
   1395.4163      
   1269.1530      
   1241.9271      
   1210.4192      
   1437.0675      
   1668.8427      
   1201.8173      
   1329.3356      
   1418.3075      
   1598.0658      
   1290.5332      
   1487.1677      
   1253.2056      
   1605.0574      
    963.0498      
   1102.8572      
    930.1854      
   1340.3502      
   1373.2622      
   1333.0300      
   1284.2253      
   1459.1455      
   1807.6335      
   1676.2191      
   1843.5135      
   1625.5573      
   1905.4193      
   1428.3513      
   1186.1230      
    867.9891      
   1552.9569      
   1318.8607      
   1437.7405      
   1049.8545      
   1550.9288      
   1196.6580      
   1186.5074      
    842.8518      
   1445.4104      
   1374.9641      
   1679.4016      
   1302.9866      
   1335.7424      
   1004.1516      
   1182.3038      
   1490.0358      
   1432.4321      
    690.8326      
   1308.7954      
   1651.6078      
   1292.6313      
   1299.5687      
   1581.8702      
   1519.8563      
   1341.8268      
   1057.3361      
   1222.6368      
   1250.9789      
   1009.6270      
   1470.9922      
   1160.2473      
   1013.1628      
   1707.2772      
   1270.8818      
   1016.6703      
   1667.5503      
   1381.6420      
   1384.2163      
   1121.0128      
   1475.3318      
   1680.4006      
   1588.0894      
   1784.8521      
   2225.5125      
   2656.1094      
   5185.3789      
  13383.2021      
  28797.0078      
  13743.0830      
   4695.4946      
   3203.8811      
   2067.5317      
   1797.1895      
   1618.4503      
   1880.0358      
   1636.3783      
   1725.1326      
   2417.6636      
   2516.2305      
   2061.4707      
   1916.6063      
   2349.0876      
   2749.4331      
   3408.8992      
   3553.3694      
   2998.5359      
   2044.0356      
   1644.5054      
   1298.9277      
   1541.7708      
   1949.8312      
   1190.6666      
    766.8822      
    807.5458      
    682.5900      
   1285.9578      
    929.6688      
   1158.1631      
   1314.6062      
   1026.3687      
    832.9263      
    997.0641      
   1093.2872      
   1108.4833      
    706.6044      
    929.9391      
    915.2936      
   1083.8522      
    911.5232      
   1169.7058      
   1073.8744      
    986.7231      
   1142.6080      
   1140.6823      
    883.1199      
    906.7242      
    675.5623      
    627.0685      
    633.6296      
   1013.9630      
    858.8604      
    844.1925      
    592.1263      
    840.3241      
    457.2834      
    683.7290      
    893.9793      
    892.0309      
    788.1494      
    807.4135      
    958.4387      
   1028.8237      
   1077.9755      
    926.9922      
    899.5132      
    490.8866      
   1070.0137      
   1195.9697      
    934.0720      
    978.8602      
   1083.2968      
    894.0717      
    798.6802      
    707.6685      
    917.7877      
    737.5518      
    858.5382      
    560.0753      
    680.7091      
    640.6112      
    994.9199      
   1069.4895      
    613.4169      
    933.5140      
    804.1274      
    937.9152      
    935.8657      
    721.7230      
    923.2495      
    688.0024      
    902.1348      
    658.5164      
    791.9417      
    985.1410      
    953.3066      
    912.9930      
    838.7719      
    802.7662      
    665.2159      
    908.8796      
    970.4907      
    870.7316      
    877.1215      
    930.1919      
    974.8054      
    414.3439      
   1196.1465      
   1343.4055      
    979.0575      
   1121.5474      
    983.2914      
    972.6612      
   1076.8057      
   1019.3714      
    940.7568      
   1006.5690      
   1153.3248      
   1044.7648      
   1174.5452      
   1006.4382      
   1093.5599      
    862.0549      
   1084.9562      
   1364.1494      
   1421.7965      
   1308.4950      
   1220.9833      
   1398.0540      
   1310.4135      
   1342.3499      
   1293.1771      
   1586.0654      
   1721.1504      
   1783.3671      
   1841.3285      
   2158.3630      
   2156.0645      
   2287.9968      
   2764.2864      
   2761.9419      
   3079.1997      
   3345.1421      
   3740.6953      
   4237.0293      
   4051.5281      
   4147.2183      
   4055.5359      
   3432.1604      
   3447.4001      
   3339.1343      
   3371.9717      
   3149.5313      
   3270.2366      
   3709.4460      
   3379.9036      
   3448.0479      
   3295.7439      
   3126.2607      
   3084.3379      
   2797.4197      
   2655.4333      
   2831.9092      
   3136.0647      
   2805.2451      
   2772.2678      
   3313.3647      
   3042.9592      
   3150.1816      
   3310.3806      
   3356.3499      
   3169.1609      
   3263.3792      
   2857.6292      
   2868.2881      
   2761.0508      
   2749.8855      
   2621.0916      
   2657.8325      
   3079.2083      
   2788.0647      
   2620.0215      
   2774.4136      
   2541.1875      
   2595.2546      
   2289.0884      
   2023.1971      
   2171.7910      
   2139.1248      
   2089.2139      
   2125.6135      
   2218.1968      
   2519.0437      
   2694.8850      
   2810.0935      
   2450.8457      
   2530.8459      
   2868.0637      
   2830.6233      
   2432.2537      
   2291.1704      
   2159.0403      
   1962.6129      
   2029.0422      
   2151.6213      
   2634.4109      
   2889.0359      
   3359.9260      
   4198.9717      
   4191.8784      
   3528.4204      
   3024.9490      
   2140.3542      
   1995.6504      
   2053.4402      
   1865.9786      
   1970.9543      
   2110.5889      
   1481.7477      
   1954.8569      
   2167.7517      
   2299.1440      
   2387.4827      
   2758.4453      
   3474.3191      
   3006.4302      
   2533.3547      
   3378.4126      
   3402.1868      
   3092.3062      
   2897.3501      
   2916.5842      
   2778.7913      
   2933.2173      
   3057.3733      
   3247.5588      
   3253.7104      
   3545.8108      
   3626.9863      
   3324.8313      
   3502.5703      
   3455.8691      
   3422.4043      
   2972.5544      
   2847.7383      
   3440.8186      
   3345.7957      
   3673.5476      
   3843.3584      
   3368.5537      
   2575.3696      
   2092.8892      
   2262.7874      
   2104.9360      
   1968.9762      
   2017.9751      
   1839.3079      
   2236.8005      
   1744.1575      
   1485.2206      
   1078.9232      
   1148.4246      
   1124.6791      
   1050.1215      
    777.2085      
    909.7014      
   1072.1090      
    710.6379      
    775.5107      
    946.0012      
    892.7556      
    734.1900      
    820.1417      
   1079.5956      
    764.4592      
    913.7603      
    755.1455      
    836.8939      
    665.8527      
    428.2058      
    564.0868      
    544.7443      
    748.2051      
    766.6990      
    751.4901      
    875.3816      
   1016.4168      
   1170.4801      
    930.9333      
    599.8405      
    576.2657      
    674.5404      
    550.1291      
    753.5240      
    532.3890      
    550.7922      
    351.2899      
    507.8698      
    404.7322      
    276.6865      
    424.6906      
    510.1006      
    520.0897      
    580.4285      
    540.0595      
    550.0453      
    631.4002      
    632.9898      
    596.7849      
    560.5906      
    453.1810      
    505.0417      
    590.5170      
    491.4341      
    669.2651      
    465.2527      
    651.3997      
    762.2952      
    604.1417      
    576.3232      
    510.7923      
    550.0855      
    589.3944      
    637.1286      
    722.7253      
    648.6329      
    692.1924      
    651.7280      
    754.1501      
    709.4423      
    509.5234      
    813.4815      
    844.5025      
    656.7570      
    603.7224      
    659.8184      
    686.5535      
    688.0790      
    933.7652      
    720.5403      
    890.4241      
    673.1583      
    712.4811      
    718.1976      
    837.5027      
    759.0557      
    655.5197      
   1006.4608      
    805.6351      
    773.4789      
    720.3306      
    717.6196      
    938.0005      
   1015.4476      
   1050.7126      
    904.5377      
   1222.8894      
   1067.8536      
   1200.4495      
   1435.2197      
   1406.9630      
   1361.7302      
   1776.2844      
   1607.0875      
   1336.4393      
   1631.3291      
   1641.3228      
   1775.0825      
   1699.6985      
   1765.1895      
   1903.4778      
   2140.8066      
   1773.8276      
   2195.3003      
   2330.1985      
   2612.3921      
   2410.7109      
   2727.9397      
   3160.1880      
   3240.2815      
   3447.5540      
   3743.5823      
   3872.9612      
   3777.3108      
   4181.2974      
   4534.3198      
   4660.8369      
   4823.4614      
   5112.4902      
   5344.0493      
   5531.0967      
   5659.6025      
   5920.5352      
   6324.7358      
   6685.3442      
   7164.2607      
   7543.7676      
   7723.3462      
   8651.8877      
   9208.5479      
   9104.2617      
   9220.9688      
   9063.8799      
   8207.7930      
   8043.8130      
   7504.8848      
   7319.4375      
   6930.2603      
   6377.8892      
   6808.0054      
   6772.3926      
   6621.3940      
   6475.3711      
   5922.4941      
   5983.1826      
   6217.7925      
   6536.1079      
   7311.2974      
   7677.3979      
   7076.7056      
   6279.6475      
   5705.8511      
   5457.7988      
   5708.5732      
   5732.6533      
   5966.2598      
   6374.9878      
   6463.6572      
   6959.0146      
   7472.3096      
   8296.8750      
   8806.9590      
   8793.9805      
   9260.0127      
   9938.1826      
  10594.2891      
  12207.7148      
  13915.6094      
  15708.7061      
  17747.1465      
  19349.3398      
  19696.2676      
  18649.7070      
  16196.9492      
  13486.1631      
  10829.0117      
   9109.2354      
   7529.0332      
   7018.1270      
   5966.3701      
   5790.0972      
   5568.9922      
   5470.7007      
   4967.3950      
   5351.3008      
   4978.9834      
   4895.0747      
   4628.0376      
   4584.7300      
   4849.6904      
   4734.6548      
   4637.6914      
   4997.0449      
   5308.8267      
   5653.9004      
   5773.2310      
   6768.5249      
   8620.7900      
  11348.8779      
  16813.6719      
  26255.3789      
  35833.3008      
  30565.0332      
  19448.8281      
  12768.4385      
   9305.2510      
   7711.6611      
   7185.5752      
   6991.9653      
   7420.8999      
   7338.2617      
   7065.2930      
   7916.3950      
   8403.7773      
   8490.3818      
   9260.2197      
  11103.9980      
  13928.4727      
  18664.2754      
  28051.0703      
  47542.6602      
  73930.9609      
  61829.2695      
  40395.0273      
  33440.0898      
  35190.9023      
  36004.5547      
  29984.6426      
  22231.6934      
  17177.5547      
  13526.8008      
  11196.8740      
  10308.0049      
  10275.0566      
  10909.0195      
  11909.0723      
  13344.2246      
  14347.7891      
  15787.3076      
  17512.2109      
  16794.4004      
  15456.0889      
  14945.2031      
  12928.7744      
  11371.4258      
  11681.2568      
  11210.2002      
  11221.3145      
  10371.4229      
  10421.5166      
  11140.7734      
   9834.9980      
   7866.8950      
   5895.2393      
   4845.6143      
   4166.2681      
   3559.9324      
   3115.8513      
   2977.9956      
   2589.7771      
   2521.9880      
   2643.9294      
   2696.9360      
   2616.0803      
   2500.8765      
   1957.4711      
   1945.8453      
   1581.0015      
   1454.9919      
    916.4252      
   1026.8541      
   1011.2060      
   1222.9692      
    874.9415      
    968.4772      
   1133.7203      
    794.5851      
    795.7475      
    416.7870      
    597.2796      
    519.1330      
    683.1774      
    914.7653      
   1172.4918      
   1005.2798      
   1048.4807      
   1159.0856      
   1290.9879      
    879.7048      
   1048.8589      
    334.9028      
    223.8744      
    191.8189      
    446.5280      
    447.6664      
    615.6398      
    416.6251      
    118.7355      
    589.8096      
    449.1717      
    512.8085      
    881.9063      
    573.4599      
    166.9594      
    454.8084      
    202.3841      
    269.9125      
    574.9024      
    563.5073      
    556.2804      
    332.5488      
    600.2417      
    551.2820      
    815.7098      
    888.0669      
    700.7644      
    869.3188      
    862.0463      
    637.2304      
   1137.2836      
    505.9468      
    569.5885      
   1052.2546      
   1040.7368      
    552.0285      
    728.5101      
    570.9049      
    826.9584      
    631.5136      
    620.0838      
    704.7119      
    563.8510      
    849.1599      
    737.2334      
    738.3179      
   1357.1594      
   1214.8165      
    951.0001      
    910.1389      
    777.1844      
   1122.2931      
   1334.0758      
    734.4065      
    660.2712      
    929.1700      
    842.2282      
    521.6655      
    890.4514      
   1156.1074      
   1026.8407      
    889.4556      
   1256.1768      
   1126.6992      
   1266.7308      
   1631.4086      
   1674.8871      
   1464.1365      
   1355.3317      
   1335.2780      
   1810.7885      
   1481.0397      
   1317.3416      
   1597.4424      
    936.7075      
   1257.2305      
   1418.6310      
   1187.7185      
   1066.8015      
    849.7500      
   1346.7883      
   1297.2080      
   1192.9196      
   1485.0939      
   1300.3175      
   1669.2864      
   1496.6616      
   1573.8691      
   2123.6199      
   1601.3430      
   2010.4316      
   1645.7864      
   1562.0787      
   1686.0005      
   1504.8809      
   1777.1996      
   1574.6287      
   1766.4944      
   1597.8457      
   1811.0150      
   1922.6385      
   1915.1370      
   2112.2864      
   1806.5706      
   1654.7853      
   1778.8563      
   1728.9158      
   2070.3752      
   2190.9922      
   2560.7756      
   1902.9360      
   1840.1349      
   2242.0479      
   1409.9899      
   1715.7235      
   1856.8928      
   1785.6411      
   1782.3842      
   1830.1171      
   1470.8850      
   2108.9875      
   2268.1323      
   2449.1382      
   2553.2290      
   2356.7559      
   2327.7544      
   2483.1460      
   2214.1660      
   2446.4702      
   2520.4556      
   2384.0957      
   2672.9822      
   2695.5037      
   2528.6707      
   2986.7969      
   3361.1409      
   3401.3191      
   3467.6853      
   3582.1648      
   3338.9106      
   3978.6196      
   3742.5823      
   3861.9458      
   4215.0215      
   4251.3081      
   4327.3916      
   4293.0015      
   4844.3506      
   4916.6851      
   4846.2710      
   5510.5542      
   6013.6650      
   6584.9868      
   6990.6250      
   7570.9487      
   7595.1929      
   8482.8193      
   9459.9414      
  10350.2393      
  11833.9053      
  13974.6670      
  16792.7852      
  21342.5156      
  27351.4434      
  37673.1445      
  54467.2617      
  77701.2813      
  92854.1875      
  79413.6094      
  55876.9180      
  40318.7773      
  32970.5039      
  30719.9336      
  31932.6465      
  32492.8809      
  27413.8301      
  21204.9297      
  17436.9141      
  15320.9951      
  14959.3926      
  14782.4512      
  14569.5537      
  15790.1338      
  17067.4883      
  18554.2891      
  20470.8125      
  22165.0977      
  23287.0449      
  23877.2480      
  24442.5781      
  27325.4492      
  29774.0820      
  32384.7676      
  36048.9492      
  38086.5039      
  39273.9844      
  39476.1602      
  38408.5391      
  37321.4102      
  35411.8047      
  35806.2500      
  37564.2813      
  41083.6484      
  44032.5977      
  45612.6563      
  45639.2109      
  45077.9727      
  44732.1836      
  46659.7383      
  50971.4414      
  58288.3789      
  68077.5000      
  80610.7891      
  96150.1094      
 113977.7578      
 132608.9375      
 140754.3906      
 134037.1563      
 116881.5156      
  97005.7969      
  79343.5547      
  64284.3789      
  54086.9258      
  46707.8789      
  42413.5273      
  40172.4844      
  39704.9063      
  41233.3203      
  43929.8789      
  47395.5469      
  52651.7773      
  59598.0586      
  67985.9063      
  75694.6328      
  81519.7266      
  84458.4766      
  86398.9922      
  86613.6484      
  86565.1172      
  86123.1250      
  87012.8672      
  86749.0391      
  83017.2188      
  77870.8281      
  76315.8281      
  77715.2109      
  79985.3516      
  81759.1641      
  83616.1328      
  83007.6875      
  78192.7266      
  71459.0234      
  63123.8633      
  56621.1641      
  53066.0430      
  52587.3008      
  55083.4180      
  60286.9727      
  68118.4453      
  74267.5703      
  78605.5859      
  77743.1484      
  72104.8750      
  63621.4375      
  54191.7539      
  45061.5156      
  37794.1602      
  31974.6699      
  28268.1523      
  25669.4688      
  24306.6172      
  24198.1738      
  23703.6035      
  23776.6895      
  22230.4219      
  21495.0547      
  20728.0820      
  19479.2148      
  18150.1543      
  16827.2266      
  14958.9170      
  13210.9814      
  12438.2939      
  11625.4453      
  11324.4658      
  10985.6582      
  11360.6729      
  11718.0732      
  12871.7871      
  13718.1113      
  15423.9580      
  16177.6055      
  17292.3613      
  18443.9219      
  17839.3320      
  17007.7070      
  16792.7031      
  15198.2295      
  14126.7275      
  12552.7891      
  11066.6797      
  10295.8154      
   9318.9492      
   8725.2666      
   7809.8013      
   7438.5601      
   7355.9556      
   7342.8682      
   7311.2734      
   7261.2061      
   8198.2979      
   8693.8467      
   9580.7813      
  10880.8789      
  13110.7646      
  15708.2197      
  18912.0645      
  23171.2227      
  27052.8105      
  30920.8203      
  32868.6797      
  32301.0352      
  29521.4902      
  25788.0176      
  21621.9980      
  17389.4961      
  14376.6357      
  11438.1465      
   8953.8125      
   7226.2520      
   5738.8696      
   4551.0942      
   3935.2876      
   3386.2927      
   3109.6631      
   2447.9221      
   2560.0681      
   1840.5161      
   1934.5978      
   1803.9374      
   1694.6960      
   1484.4376      
   1438.8783      
   1296.6625      
   1083.5646      
   1197.4688      
   1395.6763      
    964.5856      
   1216.5640      
    790.8810      
    670.9380      
    567.8244      
    884.9195      
    619.1970      
    728.0850      
    658.1351      
    692.1687      
    597.3302      
    519.2299      
    727.7432      
    123.7925      
    405.4727      
    232.5754      
    597.7385      
    242.3463      
    474.7879      
    260.3819      
    447.2871      
     76.2894      
    527.5632      
    482.7005      
    413.0284      
    745.8967      
    319.3713      
      0.0010      
    461.5877      
    653.2234      
      0.0010      
    104.3833      
    443.8629      
    378.3683      
    358.4240      
    169.1880      
    380.5984      
    542.9165      
    427.6103      
    461.4856      
    507.8164      
    574.9265      
     34.3196      
    365.0863      
    701.7733      
    407.9373      
    251.5836      
    583.4888      
    335.6831      
    311.6116      
    589.8380      
    416.4749      
      0.0010      
    231.9398      
   1155.6543      
    847.2018      
    681.4420      
    280.2670      
     25.4547      
    708.5635      
    909.2064      
    672.6010      
    935.6918      
    632.4990      
      0.0010      
    244.7680      
    655.4279      
    229.6969      
   1128.0970      
    911.5236      
    562.8233      
   1034.0442      
   1210.5441      
   1657.1169      
   2145.1709      
   2985.3418      
   3675.4238      
   2194.1206      
   1850.9260      
   1366.5980      
    923.5347      
   1439.4825      
   1079.4999      
   1050.9351      
    469.1608      
    610.8272      
    367.1282      
    795.1317      
    783.3511      
    381.6406      
    830.5519      
   1286.8962      
   1776.1775      
   1823.4099      
   1684.6208      
   1596.7131      
   1332.3634      
   1156.9812      
   1140.9312      
   1099.7903      
    517.6503      
   1508.2029      
   1122.7828      
   1387.6265      
   1350.5137      
    870.1600      
    691.9285      
    505.9248      
    947.2827      
    989.7017      
    994.5652      
   1334.3484      
    895.8171      
   1440.7495      
   1135.2405      
    777.1123      
   1086.4146      
    874.2350      
    779.1614      
    580.4642      
    370.0029      
     20.3534      
    325.9180      
    318.3360      
    675.1639      
    601.1328      
    851.1916      
    847.7025      
   1040.2386      
    874.0436      
    129.2805      
    800.4485      
    510.5208      
    893.4053      
   1429.7694      
    566.4008      
    891.2496      
    671.4583      
    208.7962      
    143.5522      
    131.8718      
    202.5542      
    624.9892      
    397.8787      
    249.9008      
    308.3279      
    255.3530      
    412.9332      
    256.6776      
    381.1871      
    274.4968      
      0.0010      
    503.1299      
    317.7444      
    240.0187      
    158.2722      
      0.0010      
    106.0759      
    226.1517      
    342.3251      
    342.9792      
    207.5094      
      0.0010      
     81.2070      
     65.4143      
    350.3699      
    342.7597      
    306.2609      
      0.0010      
    357.0972      
    560.4445      
    374.9167      
     50.0473      
    306.0120      
    331.4250      
    294.9259      
    340.9662      
    184.9194      
    486.9272      
     38.1187      
    355.9240      
    683.6494      
     40.0402      
    102.3392      
      0.0010      
      0.0010      
    182.4407      
    612.8002      
    233.1450      
    498.0859      
    333.4007      
    714.9307      
    252.1721      
      0.0010      
     80.5472      
    299.4317      
    378.4829      
    354.3372      
    392.1423      
    434.0935      
    306.7018      
    253.7233      
      0.0010      
    259.1000      
    689.9039      
    380.0085      
    149.7785      
      0.0010      
      0.0010      
    275.2169      
    111.1352      
    231.1224      
     46.6228      
     71.8941      
    377.3491      
      0.0010      
    118.9697      
    346.1824      
     58.5496      
    182.5390      
    294.3971      
    138.5039      
    638.8450      
    102.7269      
    206.1986      
      0.0010      
     30.6047      
    426.6641      
    237.4794      
     81.7409      
      0.0010      
      0.0010      
    256.4032      
      0.0010      
    327.7093      
    229.3834      
    473.4841      
      0.0010      
      0.0010      
    190.6345      
      0.0010      
    331.9483      
    114.2893      
    329.0331      
    350.2578      
      0.0010      
     55.0608      
    467.7139      
    163.1317      
     73.2878      
    481.9170      
     70.3807      
    503.7842      
      0.0010      
     10.5793      
      0.0010      
      0.0010      
    411.7031      
    214.3701      
    198.4949      
      0.0010      
    356.2817      
      0.0010      
    303.8425      
      0.0010      
     62.2601      
    359.2342      
    293.8371      
     31.1809      
      0.0010      
    411.1188      
    370.4269      
    206.1567      
    346.8434      
    409.3315      
    463.6227      
    538.6384      
      0.0010      
      0.0010      
    585.9151      
    289.0736      
     10.0514      
    356.2078      
    373.2892      
    638.5237      
    494.2355      
    759.9777      
    569.8527      
    483.5642      
    335.5080      
    617.1292      
    295.4332      
    279.5281      
    251.2693      
    305.4001      
    433.8753      
    591.5885      
   1149.4557      
    229.4298      
    213.5394      
    440.8589      
    227.0242      
    371.8253      
    865.2870      
    828.4450      
    472.6268      
    572.4481      
   1134.2590      
   1356.5549      
   1277.5394      
   1706.5059      
   2185.1282      
   2436.7576      
   2650.8794      
   2711.3694      
   3150.2898      
   3181.0427      
   3428.0381      
   3558.6909      
   3685.2585      
   3951.7139      
   2882.5361      
   2660.2007      
   2001.0507      
   1621.7114      
   1634.8965      
   1232.6891      
   1421.7155      
   1120.9847      
   1280.3723      
   1017.8223      
   1164.4086      
    591.1428      
   1186.4031      
   1576.7825      
   1745.7504      
   2016.7181      
   2250.6001      
   2459.7649      
   2626.8477      
   2188.5327      
   2435.8320      
   2474.7527      
   2937.6631      
   3106.0210      
   2852.8770      
   3210.6016      
   2558.5833      
   2401.2996      
   1761.8562      
   1939.7526      
   1330.1288      
   1255.3429      
   1477.9521      
   1478.4941      
    744.6143      
   1366.3496      
    974.2795      
    663.3239      
   1246.5769      
   1649.8578      
   1595.7074      
   1680.4075      
   1938.3218      
   1769.9647      
   1703.0692      
   2168.6753      
   1468.7050      
   2038.3303      
   1390.0970      
   2069.0437      
   1900.3402      
   1824.8624      
   2108.7913      
   2389.7412      
   2492.5588      
   2959.7505      
   3231.5981      
   3752.2046      
   3665.7546      
   3202.9824      
   2730.7761      
   2351.4138      
   1995.4973      
   1599.5504      
   1293.8934      
   1436.8401      
    986.1001      
   1748.9797      
   1045.4636      
    929.4149      
   1225.9595      
    951.2611      
    852.0067      
    881.6100      
    687.1003      
   1308.0244      
    974.6763      
   1171.1309      
    921.6369      
    495.2722      
    764.8454      
     27.2186      
    952.8237      
    795.4379      
    775.2145      
    862.9090      
    780.3917      
    776.7627      
    719.2234      
    641.0325      
    414.2829      
    460.1813      
      0.0010      
    226.3766      
    399.8359      
    227.4007      
   1080.8036      
   1022.9764      
    670.4849      
   1190.8109      
    899.6933      
   1137.5629      
    672.5219      
   1268.0541      
   1524.1147      
   1202.2144      
    600.0505      
   1186.5211      
    725.2767      
    514.7704      
    577.2604      
    913.5767      
    943.1860      
    525.0500      
    200.0373      
    188.2149      
    671.3095      
    618.0059      
    247.2701      
    984.1431      
    627.7842      
    524.9246      
    782.0670      
    720.3784      
    394.3759      
    609.5901      
    833.8524      
    379.3793      
    458.2283      
    835.3422      
    794.3381      
    484.4770      
    588.2512      
      0.0010      
     45.8325      
    292.7418      
    834.6512      
    367.8455      
    657.4020      
    233.0199      
    654.2502      
    945.1293      
    933.1446      
    214.4270      
    445.4823      
    264.7396      
    113.2391      
    591.4898      
    699.5631      
    311.9525      
    267.1782      
    308.8093      
    800.9874      
    631.6267      
    549.4300      
    421.9753      
      0.0010      
    217.1345      
    378.0879      
     17.0594      
    713.6666      
     30.3158      
    901.2992      
    681.9830      
    380.9789      
    881.9740      
    287.2554      
      8.6226      
    132.0856      
    482.3306      
    586.0589      
    586.5367      
     15.1048      
      0.0010      
    295.1887      
      0.0010      
    572.3901      
      0.0010      
    309.4356      
      0.0010      
    677.6769      
    446.7921      
    674.4888      
    340.6084      
    588.5748      
    696.5965      
    403.8105      
    157.5201      
    520.2402      
    355.7938      
    521.1801      
    385.5571      
      0.0010      
     53.7117      
      0.0010      
      0.0010      
    317.9094      
    149.8923      
      0.0010      
      0.0010      
    258.0818      
      0.0010      
    588.7365      
    321.1682      
    202.4160      
    867.6227      
     55.6659      
      0.0010      
     36.1092      
    480.5060      
    390.2799      
    522.6906      
    238.9726      
    494.7232      
      0.0010      
    211.5997      
      0.0010      
      0.0010      
    134.9833      
    604.8412      
      0.0010      
      5.2278      
     63.0198      
    826.1067      
    466.7595      
    343.6229      
    142.7325      
    488.7501      
    382.0395      
    103.0924      
     83.0472      
    498.8117      
    623.1584      
    809.9086      
    835.2468      
    451.1327      
    225.2577      
    604.7460      
    555.6275      
    937.1246      
    498.7445      
    788.6404      
      0.0010      
      0.0010      
    810.7148      
    699.3183      
    443.7039      
   1453.8110      
    795.9229      
    680.4166      
    272.6210      
    219.6570      
    909.7089      
    376.7976      
    336.0833      
    493.0667      
    633.9024      
    845.5295      
    597.5926      
    738.6594      
    888.3450      
   1180.0056      
   1022.1904      
   1243.4738      
   1156.3129      
    965.3057      
   1806.6493      
   1270.2811      
   1408.6730      
    585.9075      
   1350.9856      
   1313.8026      
   1051.5391      
   1503.0001      
   1327.6520      
   1869.5800      
   1445.6581      
    929.0087      
   1752.9535      
   1644.0800      
   2218.4155      
   1762.6733      
   2503.9646      
   1860.4054      
   1877.6980      
   1382.5986      
   1680.7194      
   1874.7817      
   2310.9575      
   1355.0507      
   2057.6135      
   2007.3285      
   2427.4116      
   2236.7451      
   1470.1831      
   1962.5925      
   2068.6458      
   2907.7288      
   2515.1008      
   2464.4431      
   3050.6047      
   3724.7510      
   3417.6470      
   3869.0535      
   4746.0088      
   5608.5825      
   6765.1909      
   8606.7012      
  10547.6709      
  13900.3965      
  18809.8809      
  26511.8906      
  40283.9844      
  62554.3242      
  84485.4922      
  80609.5313      
  56756.7305      
  39296.4531      
  27358.2617      
  20261.8301      
  15630.1006      
  12650.9521      
  10597.1602      
   9402.4053      
   8328.1318      
   9066.5947      
   8394.4258      
   8455.6924      
  10203.5469      
  11532.6094      
  14432.5576      
  17978.7148      
  22919.1133      
  30283.1836      
  36439.9922      
  36111.5586      
  31504.6992      
  24826.7109      
  21043.8164      
  17709.9492      
  16309.0693      
  16735.6680      
  16843.0820      
  19050.6641      
  21534.9961      
  25110.5156      
  28948.5020      
  33037.6172      
  35826.0352      
  36798.8633      
  37421.3125      
  39695.2461      
  43703.5977      
  47477.6133      
  47688.1641      
  45805.2188      
  43639.4258      
  41339.8516      
  41103.0039      
  42532.5469      
  45476.2227      
  49641.9219      
  53236.5586      
  56050.0586      
  57193.7539      
  55681.0117      
  51545.6875      
  47886.6836      
  44839.3750      
  41487.4883      
  40253.3398      
  39687.9102      
  39765.5195      
  41322.5391      
  43384.1875      
  47329.3516      
  50770.9961      
  55975.5273      
  60308.0078      
  64033.7656      
  64583.3203      
  62704.7266      
  57446.5039      
  51795.5039      
  45680.8633      
  39817.0820      
  34392.7969      
  30524.5586      
  26681.0684      
  23291.3809      
  21081.9961      
  19042.2656      
  17320.0352      
  16378.2305      
  16421.1387      
  16124.4961      
  16071.9980      
  15950.9023      
  16226.3018      
  16369.9619      
  17048.6895      
  16620.9238      
  17496.8047      
  17389.1133      
  16334.7432      
  15444.2529      
  15053.3193      
  13158.2236      
  11722.0029      
  10366.2900      
   9299.7490      
   8517.5801      
   7606.4297      
   6245.8813      
   6604.1763      
   6359.6934      
   5828.3184      
   5377.1216      
   4510.3530      
   5703.9570      
   5089.3633      
   4718.3569      
   4696.7007      
   4389.3774      
   4122.8472      
   4931.8467      
   4320.4063      
   4132.7329      
   5345.7202      
   5008.6157      
   5444.5176      
   6167.0332      
   6602.0068      
   7850.4097      
   7333.8799      
   8808.5293      
   8190.7856      
   9590.6377      
   9538.6201      
   9696.3193      
   9954.9863      
   8393.3760      
   8351.6953      
   8137.5503      
   7402.0532      
   6411.9087      
   5557.7075      
   5357.3838      
   4027.2666      
   4180.3955      
   4023.6592      
   3715.3286      
   3408.5149      
   2683.7117      
   2335.2253      
   2335.5999      
   2136.9028      
   1837.7341      
   1909.6993      
   2583.6438      
   1788.3710      
   1227.7478      
   1885.9150      
    995.5323      
   1412.5164      
    904.9919      
   1756.9678      
    934.7689      
   1951.3481      
   1452.0083      
   1464.9243      
   1607.6903      
   2096.3491      
   2193.9836      
   1978.8760      
   1878.0913      
   2645.3411      
   2974.8293      
   2629.0291      
   3121.4404      
   3388.6975      
   2736.7693      
   2685.9185      
   2848.5955      
   3256.5720      
   2874.9912      
   2948.1296      
   2093.3950      
   1946.0508      
   2428.8135      
   2327.3132      
   1288.8231      
   1623.7704      
   1331.2715      
   1335.8140      
    804.1531      
   1466.0688      
   1462.2523      
    627.5183      
    983.8171      
    830.7977      
   1184.0850      
   1018.1134      
    997.7144      
    136.3891      
     14.0303      
    514.9501      
    125.1870      
    437.4492      
   1082.9518      
    689.6393      
     97.9650      
    442.9959      
    616.4028      
    815.1185      
    407.0454      
    828.2519      
    791.3588      
    461.5929      
    701.1124      
    195.3629      
    491.4793      
   1104.2169      
    876.2913      
    785.5673      
   1059.5542      
    509.7195      
   1135.0938      
    502.1876      
    646.8386      
    709.1359      
   1248.9287      
   1153.5005      
   1894.7472      
   1920.3671      
   2085.2217      
   2709.5349      
   3542.9968      
   3707.8450      
   4664.7485      
   4489.2910      
   4507.1968      
   4793.5625      
   4908.6958      
   4359.1528      
   3896.9570      
   4276.6841      
   3680.6536      
   2530.5496      
   2031.0035      
   1829.1309      
   1732.8198      
   2154.5249      
   2613.1528      
   1545.1674      
   1537.1383      
   1793.3672      
   2495.3972      
   1848.7234      
   1895.3650      
   1891.4932      
   2161.8516      
   1976.4437      
   2399.7715      
   2255.9692      
   2222.4551      
   2210.0952      
   1805.5535      
   2308.1802      
   2486.7649      
   2810.9390      
   2683.2439      
   2572.8440      
   2492.3740      
   2416.2588      
   2425.0857      
   2137.3896      
   1460.9994      
   2788.0330      
   1624.9359      
   2473.4980      
   2767.6970      
   2478.4292      
   2313.2742      
   2576.9111      
   2288.5276      
   2889.0256      
   2378.2180      
   3738.0037      
   3682.0051      
   3211.9749      
   3160.7446      
   3152.4880      
   3575.1543      
   4411.2715      
   4271.5278      
   6027.7954      
   5148.4336      
   8108.8667      
   8909.3223      
   9415.5771      
  11275.8213      
  11095.4531      
  10590.6572      
   9607.0918      
   8153.0542      
   7083.2417      
   7768.7549      
   6171.3521      
   5677.8560      
   6474.7178      
   6158.8218      
   6806.8726      
   6204.5562      
   5545.4951      
   6707.7734      
   7596.2656      
   7813.6782      
   7573.8691      
   9151.8389      
   9827.0264      
  11916.5488      
  12832.6416      
  15737.1318      
  17053.7402      
  21040.5430      
  24411.8125      
  29253.1055      
  36073.6250      
  43231.2070      
  54037.4375      
  63772.4180      
  66944.0078      
  61264.3047      
  54740.5586      
  48159.7695      
  44827.3398      
  42238.8320      
  44970.3438      
  51504.4883      
  61889.8789      
  77515.7578      
  94985.5859      
 110567.8828      
 110592.1563      
  96306.7578      
  76578.9844      
  60179.3945      
  48651.1016      
  39779.9766      
  34204.0117      
  29771.4922      
  26787.5664      
  24426.5664      
  23892.1016      
  22053.0156      
  21113.4629      
  20204.7617      
  19515.1465      
  19643.9004      
  19098.7969      
  20409.4160      
  19027.4375      
  20404.3906      
  21500.6250      
  21830.0254      
  22330.1582      
  22517.4805      
  22319.1270      
  21854.4531      
  21773.7500      
  22530.4512      
  22489.8047      
  24692.9336      
  25406.2910      
  26525.9590      
  27818.7520      
  30693.5098      
  31899.3438      
  36953.9180      
  36418.3125      
  37927.9336      
  38401.8164      
  38176.1719      
  36397.6367      
  35685.8945      
  34839.4648      
  31610.4355      
  29220.3926      
  28734.0176      
  27480.0645      
  24438.5313      
  23267.1172      
  21062.1738      
  20408.4434      
  19817.5078      
  20863.3223      
  20392.3984      
  20370.0898      
  20648.0625      
  21644.4531      
  21535.2207      
  21265.3730      
  19384.3496      
  17671.9238      
  17943.5703      
  15879.0781      
  14079.6895      
  10890.7881      
  10672.8516      
   9417.4629      
   9684.0488      
   8312.8457      
   8327.1455      
   6752.7725      
   6029.7983      
   6232.6831      
   5395.4312      
   4740.7197      
   4302.3022      
   4816.2241      
   4193.7061      
   3793.7859      
   4019.9888      
   2847.6013      
   3812.0447      
   3665.0447      
   2528.9861      
   3303.2000      
   4405.9624      
   3549.5227      
   3783.4988      
   4135.9585      
   3988.1975      
   3060.2576      
   2825.2942      
   2349.2415      
   2971.2214      
   3314.8113      
   3578.1440      
   4138.3569      
   2707.6611      
   3678.5000      
   3170.1777      
   4642.9727      
   4814.9165      
   3965.9927      
   4345.7007      
   3171.6660      
   4127.9619      
   4058.5569      
   3924.0122      
   3651.1899      
   3565.0298      
   3457.4194      
   3015.0991      
   3096.8086      
   3471.2463      
   3579.4646      
   3174.9202      
   4061.5117      
   4341.0967      
   3688.7573      
   5014.4688      
   3507.8176      
   4816.4189      
   4522.1367      
   4469.8184      
   4795.2734      
   5415.3882      
   6651.3833      
   7253.6084      
   8028.4712      
   9242.0293      
  10392.8242      
  12082.8047      
  13672.3145      
  13794.5820      
  13293.2295      
  14521.8008      
  13780.1953      
  11611.1328      
  10496.4092      
   9221.2949      
   8241.0732      
   6965.1050      
   6801.4233      
   6869.9814      
   5532.2344      
   5470.1519      
   3987.5659      
   3313.1545      
   2454.7134      
   3507.6094      
   2078.7964      
   1087.4307      
   2583.2881      
   3014.4736      
   1005.3227      
   2185.7539      
   1446.8855      
   1093.2992      