  11100 16  1   EDFLLF10 PLLF01 EDF  .000 # S1 090794 00.01   1        
  PROGRAM LAMBDA-9   VERSION 02.31                                     
  USER EDF DATE & TIME  1994 10 12 18.49 37.06    9.3470    295K P     
 AU1 TM 500HO  50     0 LILUF4           .725000 -  .850000 .00005     
 FILE NAME                                ON PC = EDFLLF10.DX          
 NO_POINTS  =  2501.    pts   DATA_INTV =  .000050 æm                  
 MIN_LAMBDA =   .725000 æm     MIN_DATA =    .02290                    
 MAX_LAMBDA =   .850000 æm     MAX_DATA =   2.86790                    
 SCANSPEED  = .03000000 æm/min SLITWIDTH=   .00040 æm                  
  RESP TIME =   .2      sec SENSITIVITY = 5          DATE=94/09/07     
 Ho(.5)Tm(5)LiLuF4,slit=.4,scan sp=30,resp=.2,int=.05,pol=p (469)      
 Sample from Lightning Optical Corporation. Purchase order L53365D     
 Height=.298 inches, Width=.233 inches, length=.368 inches.            
 C-axis was along the .298 Height direction.  Sample was placed        
 in the sample compartment chamber of the Perkin-Elmer Lambda-9        
 with the c-axis pointing up.                                          
  This spectra is part of Database LASERS
 Database LASERS was created by Pat Cross working 
 at NASA Langley Research Center, Internal Operations Group,
 Aerospace Electronics Systems Division, Remote Sensing 
 Technology Branch. phone:(757)864-1633   fax:(757)864-7894 
     e-mail p.l.cross@larc.nasa.gov 
     homepage http://aesd.larc.nasa.gov/laser/dbmain.htm
  EOH     (1X,F11.4)                                                   
  2501.         
    173.4479    
    175.9114    
    172.9553    
    171.9700    
    169.0139    
    172.9555    
    169.9994    
    162.6092    
    168.0288    
    173.9411    
    165.5655    
    164.5801    
    164.5802    
    164.5802    
    162.6096    
    171.4781    
    175.9123    
    181.8246    
    178.3759    
    166.0587    
    155.8951    
    155.8918    
    162.6101    
    161.1321    
    161.1321    
    164.0883    
    156.6980    
    157.1908    
    159.1617    
    158.1763    
    155.8620    
    159.6545    
    160.1473    
    168.5231    
    163.5963    
    171.4794    
    165.5671    
    155.8388    
    163.5965    
    176.4064    
    161.6259    
    159.1625    
    157.1917    
    155.8190    
    155.8156    
    155.8123    
    155.8090    
    155.8057    
    155.8024    
    160.6410    
    155.7958    
    155.7925    
    162.6120    
    166.0609    
    160.1486    
    165.5683    
    168.0318    
    155.7726    
    158.1781    
    157.6855    
    155.7627    
    159.1637    
    159.1638    
    168.0322    
    170.9885    
    162.1201    
    155.7428    
    156.7006    
    155.7362    
    155.7329    
    162.1204    
    161.1351    
    155.7229    
    155.7196    
    155.7163    
    159.6572    
    155.7097    
    161.6282    
    167.5405    
    164.0917    
    165.0771    
    168.5261    
    158.1796    
    155.7163    
    157.6871    
    155.6799    
    155.6766    
    158.1799    
    166.5557    
    155.6666    
    155.6633    
    155.6600    
    155.6567    
    160.1511    
    155.6501    
    160.6439    
    174.9320    
    173.4539    
    165.5710    
    158.6734    
    157.1954    
    155.6269    
    155.7175    
    155.6203    
    155.6170    
    157.1957    
    166.0642    
    168.0350    
    159.1667    
    155.6004    
    155.5971    
    155.5938    
    155.5905    
    162.1231    
    158.6743    
    155.5806    
    156.7036    
    161.6307    
    167.0503    
    166.0650    
    168.5285    
    168.0359    
    164.5870    
    162.1237    
    155.5508    
    162.1238    
    160.6458    
    155.5408    
    155.5375    
    155.5342    
    156.2119    
    155.5276    
    155.5243    
    161.6317    
    170.5002    
    166.5586    
    164.5879    
    159.6611    
    155.5044    
    155.5011    
    157.6906    
    164.5882    
    162.1249    
    155.4879    
    155.4846    
    157.1982    
    169.0228    
    165.0813    
    157.6911    
    160.6472    
    157.6912    
    155.4614    
    155.4581    
    155.4548    
    160.6476    
    162.6184    
    162.6185    
    155.4415    
    166.5601    
    155.4349    
    155.4316    
    157.6919    
    155.4250    
    156.2139    
    155.4184    
    155.4150    
    165.0825    
    158.6776    
    155.4051    
    155.4018    
    155.3985    
    171.9805    
    173.4586    
    170.0099    
    170.5026    
    163.1124    
    155.3786    
    155.7222    
    168.0394    
    155.3687    
    156.2150    
    157.2004    
    155.3587    
    155.3554    
    155.3521    
    160.1568    
    155.3455    
    155.3422    
    155.3389    
    155.3356    
    155.3323    
    160.1572    
    155.7231    
    155.3223    
    164.5915    
    165.0843    
    170.9967    
    156.7087    
    162.6211    
    165.0845    
    176.9093    
    161.6359    
    160.6505    
    163.1141    
    163.6068    
    162.6215    
    171.4900    
    166.0704    
    170.9975    
    170.0121    
    169.5194    
    165.0853    
    164.5926    
    161.1439    
    175.4319    
    182.3298    
    176.9102    
    163.6077    
    157.6954    
    155.2363    
    163.1152    
    157.2029    
    175.4324    
    175.4325    
    172.4765    
    169.0277    
    155.2131    
    161.1448    
    165.5791    
    172.4768    
    162.1304    
    161.6378    
    175.4330    
    179.8674    
    175.9259    
    172.4772    
    169.5210    
    178.8822    
    159.1748    
    160.6528    
    163.1164    
    168.0433    
    165.0872    
    170.0142    
    181.3461    
    170.9998    
    167.5509    
    179.3755    
    163.6096    
    171.4927    
    185.2881    
    182.8246    
    181.3466    
    174.9417    
    182.3322    
    170.5077    
    166.0735    
    177.4054    
    184.3031    
    180.3616    
    185.2887    
    171.9861    
    171.4935    
    177.8985    
    169.0301    
    173.4644    
    179.8694    
    170.0157    
    169.0303    
    174.4500    
    181.3477    
    173.9574    
    187.2602    
    191.2017    
    185.7821    
    179.8700    
    187.7531    
    187.7531    
    183.3190    
    185.7824    
    193.6655    
    182.8265    
    182.3339    
    169.5239    
    180.8559    
    181.8413    
    176.9146    
    183.3196    
    190.7099    
    196.1297    
    196.1297    
    187.7540    
    190.7102    
    186.7687    
    187.2615    
    184.7981    
    174.9444    
    173.9590    
    178.3933    
    181.3495    
    181.8422    
    186.2765    
    188.7401    
    191.2036    
    197.1159    
    203.0282    
    198.1014    
    174.9451    
    188.7405    
    196.1309    
    196.6236    
    192.1894    
    191.2041    
    181.3504    
    182.8285    
    191.6970    
    190.2189    
    190.2190    
    187.2630    
    200.5656    
    202.0437    
    199.5804    
    192.1901    
    182.8291    
    181.3511    
    177.9024    
    181.3512    
    170.0194    
    176.9172    
    187.7563    
    195.1467    
    189.2346    
    189.7273    
    178.3954    
    182.3371    
    197.6105    
    195.1471    
    188.7423    
    182.3374    
    183.8155    
    181.3521    
    179.8741    
    188.7426    
    188.2499    
    187.7572    
    185.7865    
    196.6259    
    196.6259    
    186.7721    
    196.6261    
    186.7722    
    198.1042    
    204.5093    
    196.6263    
    185.7871    
    195.6410    
    206.4803    
    202.5388    
    206.4804    
    207.4657    
    198.1048    
    198.1048    
    198.1049    
    192.1926    
    184.3097    
    193.6708    
    188.2513    
    194.1636    
    205.9883    
    213.8713    
    217.8130    
    210.4227    
    199.5835    
    197.1202    
    201.5544    
    194.1641    
    201.5546    
    204.0180    
    210.9157    
    205.0036    
    203.5255    
    208.4525    
    204.0183    
    194.1646    
    191.7012    
    188.7452    
    204.0186    
    208.9456    
    218.7994    
    213.3799    
    219.7849    
    223.2337    
    216.8290    
    207.4678    
    203.5264    
    214.8583    
    213.8730    
    205.4974    
    204.5121    
    191.7022    
    200.5706    
    209.4391    
    219.2930    
    215.3515    
    205.9905    
    198.6002    
    212.8882    
    222.2495    
    219.7860    
    210.9176    
    214.3666    
    230.1327    
    226.6839    
    216.8303    
    213.8741    
    220.7718    
    220.2792    
    223.2354    
    218.8013    
    223.2355    
    221.2648    
    223.2356    
    235.0603    
    227.1773    
    234.0750    
    236.5386    
    230.1337    
    231.1191    
    241.9583    
    243.9291    
    236.5389    
    217.8167    
    229.6413    
    226.6852    
    231.1196    
    222.2512    
    234.0758    
    245.9003    
    236.0466    
    226.1929    
    234.0760    
    247.3786    
    239.4957    
    230.6273    
    235.5543    
    257.2327    
    263.6378    
    252.3059    
    239.9887    
    240.4815    
    241.9597    
    243.9305    
    250.8281    
    255.7552    
    252.7991    
    250.8283    
    244.9162    
    246.8870    
    262.1604    
    257.2336    
    251.8140    
    251.8141    
    267.0875    
    269.5511    
    260.6827    
    280.3904    
    285.3173    
    265.1171    
    267.5806    
    267.0879    
    260.1905    
    269.0590    
    269.0590    
    268.5663    
    264.1321    
    290.7375    
    284.3326    
    273.4935    
    273.0009    
    289.7523    
    286.7963    
    291.7233    
    301.5771    
    299.6064    
    297.1429    
    295.1723    
    298.1284    
    291.2310    
    287.7822    
    294.1872    
    288.7676    
    293.6946    
    295.6655    
    308.4755    
    306.9973    
    292.7094    
    294.1876    
    302.0707    
    310.4464    
    298.6220    
    295.1732    
    299.6075    
    304.5344    
    315.8664    
    321.2860    
    305.0274    
    301.0859    
    301.5786    
    300.5933    
    304.0422    
    317.8376    
    321.7791    
    312.9108    
    299.1155    
    306.0132    
    308.9695    
    299.1157    
    294.6815    
    300.5939    
    311.9259    
    306.9989    
    305.5210    
    306.9991    
    331.1410    
    330.6483    
    322.7654    
    325.7215    
    328.1851    
    315.3752    
    331.1414    
    335.0830    
    343.9514    
    341.9807    
    345.4296    
    347.4004    
    337.0540    
    336.5614    
    342.4736    
    358.2399    
    347.4007    
    343.9519    
    346.9081    
    352.3277    
    349.8643    
    360.7036    
    352.8207    
    363.1672    
    367.6014    
    367.1088    
    363.1674    
    353.8063    
    364.1529    
    371.0505    
    362.6750    
    370.0654    
    368.0947    
    365.1385    
    365.6314    
    365.6315    
    373.0218    
    383.3683    
    385.8319    
    387.3100    
    373.0220    
    383.3686    
    402.5835    
    392.2372    
    387.3103    
    386.8176    
    399.6277    
    388.2958    
    394.7009    
    396.1791    
    403.0768    
    393.2229    
    409.4818    
    415.3942    
    418.3503    
    418.3504    
    410.4674    
    410.9602    
    418.8432    
    420.3215    
    411.9457    
    420.3216    
    421.3069    
    422.2924    
    430.6683    
    434.1171    
    451.8539    
    453.3321    
    451.3614    
    449.8834    
    444.9566    
    447.9128    
    451.8543    
    457.2740    
    456.7814    
    461.7083    
    461.7084    
    469.5914    
    470.0843    
    471.5623    
    472.0552    
    475.5039    
    475.5040    
    471.5625    
    482.4018    
    480.9239    
    484.3727    
    491.2704    
    492.7486    
    494.7194    
    489.7925    
    491.7633    
    497.6758    
    498.1685    
    505.5589    
    510.9785    
    537.0912    
    519.8471    
    513.9348    
    514.9202    
    517.8765    
    523.7889    
    530.6866    
    537.5843    
    539.0624    
    552.8577    
    564.1896    
    562.2189    
    559.2628    
    576.0143    
    578.9706    
    580.4487    
    582.9122    
    586.3611    
    586.8539    
    582.4197    
    590.3029    
    612.9667    
    618.3862    
    609.5179    
    618.8791    
    623.3133    
    624.7914    
    641.0503    
    644.0065    
    644.0065    
    653.8603    
    652.8752    
    645.4848    
    647.9484    
    649.9191    
    654.3533    
    667.1633    
    667.6560    
    677.5101    
    676.5247    
    672.5833    
    688.3492    
    694.7544    
    709.0425    
    704.6083    
    699.6814    
    706.0864    
    713.4770    
    726.2869    
    729.7358    
    723.3307    
    735.6483    
    738.6044    
    736.1410    
    740.0826    
    751.4145    
    764.2245    
    758.8049    
    769.1516    
    766.1955    
    768.6589    
    757.3271    
    765.7029    
    789.8447    
    794.2790    
    794.7717    
    811.0306    
    793.7865    
    796.2501    
    804.1332    
    816.9432    
    820.8846    
    807.0894    
    818.4214    
    815.9579    
    834.6803    
    853.4025    
    859.8076    
    862.7637    
    864.2418    
    881.9788    
    869.1688    
    844.5345    
    848.9688    
    855.3737    
    860.7933    
    874.0962    
    877.0524    
    872.1254    
    869.1693    
    875.0817    
    889.3698    
    888.3845    
    890.8480    
    891.3407    
    896.7603    
    910.0630    
    909.0778    
    900.7021    
    900.7022    
    899.2242    
    907.5999    
    905.6292    
    914.0049    
    924.3516    
    944.0592    
    959.8253    
    946.5226    
    952.4352    
    946.0302    
    948.9863    
    956.3768    
    955.3915    
    944.0597    
    955.3917    
    974.1138    
    981.0115    
    984.9531    
    996.7778    
    990.8655    
    986.4315    
    988.4022    
    991.3584    
    990.3730    
   1004.6611    
   1007.1246    
   1016.9785    
   1019.9346    
   1015.9932    
   1022.8910    
   1044.5693    
   1044.0768    
   1046.0477    
   1045.0624    
   1059.8431    
   1063.7845    
   1067.2334    
   1077.5801    
   1071.6677    
   1081.0291    
   1093.3462    
   1086.4487    
   1104.1857    
   1117.4882    
   1108.6199    
   1106.6492    
   1110.5907    
   1126.8496    
   1139.6594    
   1141.6305    
   1143.1085    
   1160.3527    
   1161.3383    
   1161.8309    
   1173.1627    
   1184.9875    
   1190.8998    
   1190.8999    
   1191.8854    
   1184.0023    
   1201.2465    
   1229.8228    
   1228.3445    
   1243.1254    
   1230.3156    
   1227.3595    
   1256.9209    
   1265.7893    
   1263.8186    
   1272.1942    
   1289.4385    
   1304.7119    
   1313.5804    
   1315.0585    
   1338.2151    
   1343.1421    
   1349.0543    
   1358.9082    
   1363.8352    
   1363.8352    
   1371.2256    
   1377.1381    
   1385.0211    
   1400.7874    
   1414.5825    
   1411.1338    
   1417.0460    
   1434.7831    
   1449.5638    
   1460.8958    
   1472.2277    
   1488.4865    
   1487.0084    
   1502.2819    
   1522.4822    
   1533.8141    
   1542.6826    
   1550.0730    
   1559.9269    
   1570.2734    
   1558.4489    
   1577.6639    
   1605.2546    
   1629.3964    
   1638.2648    
   1647.1333    
   1656.0018    
   1661.4215    
   1672.7534    
   1693.9391    
   1712.1688    
   1728.4275    
   1714.1395    
   1723.9933    
   1740.2523    
   1773.7551    
   1767.8430    
   1771.7844    
   1788.0435    
   1800.8533    
   1823.0244    
   1832.8783    
   1852.0934    
   1854.0640    
   1880.6694    
   1897.4209    
   1902.3479    
   1936.3435    
   1938.8070    
   1959.5000    
   1961.4709    
   1978.2224    
   1996.4519    
   2005.3203    
   2025.5209    
   2048.6772    
   2043.2578    
   2066.9070    
   2091.0488    
   2108.2930    
   2118.6394    
   2110.7566    
   2132.9277    
   2151.6499    
   2159.5330    
   2177.2698    
   2214.2217    
   2227.5242    
   2236.8855    
   2262.5054    
   2279.7495    
   2284.1838    
   2293.5452    
   2330.0039    
   2365.4778    
   2380.2585    
   2392.0833    
   2400.9517    
   2429.5278    
   2440.3669    
   2463.5234    
   2486.6799    
   2510.3291    
   2535.9490    
   2558.1201    
   2580.7839    
   2596.5500    
   2610.3452    
   2650.7461    
   2682.2783    
   2677.8440    
   2699.5225    
   2714.3035    
   2737.9524    
   2763.0796    
   2786.7290    
   2803.9729    
   2834.5200    
   2881.8181    
   2878.3694    
   2913.8430    
   2926.6531    
   2941.9265    
   2983.8049    
   3012.3811    
   3036.5232    
   3062.1428    
   3089.2410    
   3119.2952    
   3141.9587    
   3163.1445    
   3189.7498    
   3218.3259    
   3221.7749    
   3240.4968    
   3259.2195    
   3288.2881    
   3338.0498    
   3352.3379    
   3383.8701    
   3437.5732    
   3433.6318    
   3476.0032    
   3486.3496    
   3511.9697    
   3546.9507    
   3568.6292    
   3616.4202    
   3640.5620    
   3653.3718    
   3668.6453    
   3699.6848    
   3732.2024    
   3765.7053    
   3769.6470    
   3806.5986    
   3860.7947    
   3882.4734    
   3910.5566    
   3935.6836    
   3949.4790    
   3962.2891    
   3979.0405    
   4021.9048    
   4059.3494    
   4083.4910    
   4101.2280    
   4125.8623    
   4142.6138    
   4156.4092    
   4190.8975    
   4244.6011    
   4263.3232    
   4318.9971    
   4348.0659    
   4371.2222    
   4391.4229    
   4430.8379    
   4449.5601    
   4469.7607    
   4499.8145    
   4507.6978    
   4587.0205    
   4606.2358    
   4645.1582    
   4679.1538    
   4732.8574    
   4736.7988    
   4767.3452    
   4768.8237    
   4805.7754    
   4846.6689    
   4873.7666    
   4925.4995    
   4984.6221    
   4994.4761    
   5036.8477    
   5089.0723    
   5131.9365    
   5172.8296    
   5208.3032    
   5241.3140    
   5250.1821    
   5290.0903    
   5363.0078    
   5428.0435    
   5460.5610    
   5508.8447    
   5562.0552    
   5629.0610    
   5653.2026    
   5691.6328    
   5768.4922    
   5841.9033    
   5903.9824    
   5965.0757    
   6015.3301    
   6068.0479    
   6143.9224    
   6193.1914    
   6298.1343    
   6380.9063    
   6418.3506    
   6454.8096    
   6511.9619    
   6609.5142    
   6743.0337    
   6778.9995    
   6812.5029    
   6940.6021    
   7032.7354    
   7138.6636    
   7255.9238    
   7361.3594    
   7419.0044    
   7508.6733    
   7637.2656    
   7711.6621    
   7794.9263    
   7963.4268    
   8094.4819    
   8204.3516    
   8294.5137    
   8387.6328    
   8516.7168    
   8644.3232    
   8795.0869    
   8923.6787    
   9034.5342    
   9078.3838    
   9263.6348    
   9384.8369    
   9496.6777    
   9563.6836    
   9711.9834    
   9782.4375    
   9870.5801    
   9931.7227    
  10169.1982    
  10258.8691    
  10408.1533    
  10482.9941    
  10573.6982    
  10664.8447    
  10901.3369    
  10969.8203    
  11146.6953    
  11176.2568    
  11183.1553    
  11388.1143    
  11630.0244    
  11652.6885    
  11670.9180    
  11849.7637    
  12135.0322    
  12102.0215    
  12109.4121    
  12188.6865    
  12133.5537    
  11964.5615    
  12066.0547    
  12298.5566    
  12222.2383    
  12342.4551    
  12264.6104    
  12500.1162    
  12513.4180    
  12523.7646    
  12529.6768    
  12745.9678    
  12656.2988    
  12599.1465    
  12620.3330    
  12811.4961    
  12747.4463    
  12779.4717    
  13166.2324    
  13141.5986    
  12798.1934    
  12864.7070    
  13003.6445    
  13086.4180    
  13392.3770    
  13401.7383    
  13288.4199    
  13208.1113    
  13555.9512    
  13844.1748    
  13874.2285    
  13657.9375    
  13391.8857    
  13280.5371    
  13576.6445    
  13828.9004    
  13928.4238    
  13885.5605    
  13698.3379    
  14100.3232    
  13754.9980    
  13477.1211    
  13634.7822    
  13399.2764    
  13231.7617    
  13164.7559    
  13602.7578    
  13308.6221    
  13093.3164    
  12830.2197    
  12437.0537    
  12228.6455    
  12146.3184    
  12096.6055    
  11986.2432    
  11951.2617    
  11694.0771    
  11541.8369    
  11307.3174    
  11175.2764    
  10936.8145    
  10741.7090    
  10549.5605    
  10428.3594    
  10332.2852    
  10160.3359    
  10052.9297    
   9924.3369    
   9801.6572    
   9642.0264    
   9471.5566    
   9352.3252    
   9271.5244    
   9144.9033    
   8943.8857    
   8825.1475    
   8810.8594    
   8688.6729    
   8587.6709    
   8496.0313    
   8397.4932    
   8319.1553    
   8223.5732    
   8142.2798    
   8014.6733    
   7925.0044    
   7885.5889    
   7812.6709    
   7770.7925    
   7706.2500    
   7622.9858    
   7564.3560    
   7464.3398    
   7425.9102    
   7355.9478    
   7282.0444    
   7226.8638    
   7214.0532    
   7150.9893    
   7036.1929    
   6971.1577    
   6900.2104    
   6861.7808    
   6809.5557    
   6802.1655    
   6752.8970    
   6721.3647    
   6663.2271    
   6611.0024    
   6594.7432    
   6565.6753    
   6475.0200    
   6443.9805    
   6399.1460    
   6335.0967    
   6273.5103    
   6235.5732    
   6208.9678    
   6170.5381    
   6101.0688    
   6053.2778    
   6000.0674    
   5970.5063    
   5914.8330    
   5856.2026    
   5812.3535    
   5762.0991    
   5721.6982    
   5679.3271    
   5600.4966    
   5563.5454    
   5530.5352    
   5494.5688    
   5465.0078    
   5413.2749    
   5371.8892    
   5339.3721    
   5277.7861    
   5226.0532    
   5173.3354    
   5151.6572    
   5093.5205    
   5055.0898    
   5000.4019    
   4962.9570    
   4894.4736    
   4843.7266    
   4834.8584    
   4775.7358    
   4750.1157    
   4733.8569    
   4718.0908    
   4678.6763    
   4622.5093    
   4587.5283    
   4558.4600    
   4536.2891    
   4489.4834    
   4434.3022    
   4423.4634    
   4434.7949    
   4405.7266    
   4373.2090    
   4348.0820    
   4319.5063    
   4321.9692    
   4299.7983    
   4278.1206    
   4258.9053    
   4237.7197    
   4225.4028    
   4226.3882    
   4207.6660    
   4227.3735    
   4224.4175    
   4195.8413    
   4180.0752    
   4193.3784    
   4185.9878    
   4182.5391    
   4183.0317    
   4179.5835    
   4164.3096    
   4174.6563    
   4212.5938    
   4225.8960    
   4240.1841    
   4253.9800    
   4232.7944    
   4256.4434    
   4275.6582    
   4293.3950    
   4290.9316    
   4308.6689    
   4308.1758    
   4368.2842    
   4365.3281    
   4403.7578    
   4416.0752    
   4412.1338    
   4449.0854    
   4479.1396    
   4492.4424    
   4507.2231    
   4532.8433    
   4579.1558    
   4584.5757    
   4597.8779    
   4603.2979    
   4644.1909    
   4669.8110    
   4686.0698    
   4710.2119    
   4724.9922    
   4778.6958    
   4810.7207    
   4844.2236    
   4861.4678    
   4868.3652    
   4894.4785    
   4921.5762    
   4954.0938    
   4992.5234    
   5025.5337    
   5037.8511    
   5074.8032    
   5103.8721    
   5187.6289    
   5227.5371    
   5230.0005    
   5244.2886    
   5322.6265    
   5357.1143    
   5392.5879    
   5426.5835    
   5483.7358    
   5534.9761    
   5602.4741    
   5650.2651    
   5667.0171    
   5742.3979    
   5813.8384    
   5850.7900    
   5924.2012    
   6045.4028    
   6098.1206    
   6129.1602    
   6214.8882    
   6346.9287    
   6411.9639    
   6527.2539    
   6611.5034    
   6681.4653    
   6741.5737    
   6831.2437    
   6948.5034    
   7061.8218    
   7139.6675    
   7291.9082    
   7448.0908    
   7597.8687    
   7695.9136    
   7795.4370    
   7919.5952    
   8087.6025    
   8273.8389    
   8442.8320    
   8646.8057    
   8794.6123    
   8877.3848    
   9048.3477    
   9271.5361    
   9364.6543    
   9529.7051    
   9742.0547    
   9778.0215    
   9918.4375    
  10029.7373    
  10163.7979    
  10229.3252    
  10223.4131    
  10363.3369    
  10351.5127    
  10341.6592    
  10299.2871    
  10181.0420    
   9988.3994    
   9926.8145    
   9847.9844    
   9712.9873    
   9478.9600    
   9403.5781    
   9258.7275    
   8991.1963    
   8729.5781    
   8527.0840    
   8305.8662    
   8122.5854    
   7916.1484    
   7767.8491    
   7495.8843    
   7256.4375    
   7123.4111    
   6953.9258    
   6773.1089    
   6578.9893    
   6439.5576    
   6258.7407    
   6118.3247    
   5961.1563    
   5858.1851    
   5715.3047    
   5589.6685    
   5466.9893    
   5313.2705    
   5188.1270    
   5126.5405    
   5052.6372    
   4941.2896    
   4852.1128    
   4774.7603    
   4690.0181    
   4615.1294    
   4538.7627    
   4443.1807    
   4351.5400    
   4300.3008    
   4247.0903    
   4164.8115    
   4120.9619    
   4034.7412    
   3980.0527    
   3947.0427    
   3915.5107    
   3858.8513    
   3811.0605    
   3790.8604    
   3753.4160    
   3720.8987    
   3680.9905    
   3653.4001    
   3600.1897    
   3554.3696    
   3517.4180    
   3506.5789    
   3463.7148    
   3438.0952    
   3399.1729    
   3389.8118    
   3369.1189    
   3344.4844    
   3312.4597    
   3291.7666    
   3262.2053    
   3252.8442    
   3228.7026    
   3204.0681    
   3179.4338    
   3145.4382    
   3122.7747    
   3114.3992    
   3118.3403    
   3105.5308    
   3071.0425    
   3025.2222    
   3017.8320    
   3030.1492    
   2990.7341    
   2966.0996    
   2974.9683    
   2953.2900    
   2919.7869    
   2910.4260    
   2898.1091    
   2891.2114    
   2883.3281    
   2863.1284    
   2853.2744    
   2849.8254    
   2831.1038    
   2803.5129    
   2790.7031    
   2786.2688    
   2774.4443    
   2764.5908    
   2740.9419    
   2737.4932    
   2728.6248    
   2726.1614    
   2719.7563    
   2703.9900    
   2688.7168    
   2676.3997    
   2687.2390    
   2686.2534    
   2670.9802    
   2672.4583    
   2657.6780    
   2651.7656    
   2684.2832    
   2676.4001    
   2669.9954    
   2654.7217    
   2659.6487    
   2646.8391    
   2658.1709    
   2666.0542    
   2637.9709    
   2633.0442    
   2649.7957    
   2663.0981    
   2668.0251    
   2669.5032    
   2660.1421    
   2653.7373    
   2649.7959    
   2665.0693    
   2661.6204    
   2659.6497    
   2672.9526    
   2643.3911    
   2654.2305    
   2654.7229    
   2662.6062    
   2677.3867    
   2688.2261    
   2672.4602    
   2652.2600    
   2672.4602    
   2658.6650    
   2672.4604    
   2681.8218    
   2688.2266    
   2705.9636    
   2710.3979    
   2698.5730    
   2696.6028    
   2695.1245    
   2708.9199    
   2701.5298    
   2701.5298    
   2715.8179    
   2709.4128    
   2702.5151    
   2709.4128    
   2739.4670    
   2743.9014    
   2730.5989    
   2744.8867    
   2738.9749    
   2719.7600    
   2733.5554    
   2736.5115    
   2779.8684    
   2745.3799    
   2763.1167    
   2781.8389    
   2794.6489    
   2780.3611    
   2781.3467    
   2777.8979    
   2779.8689    
   2794.6492    
   2804.5032    
   2798.5911    
   2794.1567    
   2820.7620    
   2811.8938    
   2805.9817    
   2791.6936    
   2796.1279    
   2798.0986    
   2823.2261    
   2806.9673    
   2812.3870    
   2815.8359    
   2820.2703    
   2801.5479    
   2799.5771    
   2813.3728    
   2792.1873    
   2814.8508    
   2820.7629    
   2820.2708    
   2811.4023    
   2813.8655    
   2818.3000    
   2811.4026    
   2820.2710    
   2817.8074    
   2843.4275    
   2857.7156    
   2848.8472    
   2841.9492    
   2831.1106    
   2813.3738    
   2828.6470    
   2859.6865    
   2857.7158    
   2854.2673    
   2847.8621    
   2853.7747    
   2868.0627    
   2849.3403    
   2815.8376    
   2829.6328    
   2810.4180    
   2795.6375    
   2785.7837    
   2763.1201    
   2722.2268    
   2698.0852    
   2690.2021    
   2661.1335    
   2609.4014    
   2580.8252    
   2583.7813    
   2537.9614    
   2491.1560    
   2448.2920    
   2408.3843    
   2363.0566    
   2321.6709    
   2297.0366    
   2269.9385    
   2225.5967    
   2162.5325    
   2099.9609    
   2062.5166    
   2043.3018    
   1991.5695    
   1946.2419    
   1911.2610    
   1868.3971    
   1816.1720    
   1764.9324    
   1719.1124    
   1689.5510    
   1656.5410    
   1634.3700    
   1606.2866    
   1587.5646    
   1541.2517    
   1515.1392    
   1476.7096    
   1450.5968    
   1438.7726    
   1430.3967    
   1401.8208    
   1351.0740    
   1329.3956    
   1322.9907    
   1295.8929    
   1281.6047    
   1264.3610    
   1247.1168    
   1239.7266    
   1217.0629    
   1226.9166    
   1191.9358    
   1174.6917    
   1165.8234    
   1132.8131    
   1126.4082    
   1111.6277    
   1091.9200    
   1061.8662    
   1051.5198    
   1063.3442    
   1067.7786    
   1034.7684    
   1046.1005    
   1006.6852    
    996.3388    
   1000.7729    
    994.3681    
    999.2950    
    978.6024    
    963.8217    
    956.9240    
    948.5485    
    932.2897    
    911.1039    
    922.4361    
    917.5092    
    919.4800    
    897.8016    
    889.9186    
    888.9333    
    882.0358    
    867.7479    
    883.5139    
    868.7334    
    843.6063    
    858.3870    
    872.1823    
    851.4894    
    850.9967    
    858.3873    
    840.1577    
    840.1578    
    831.2896    
    860.8508    
    854.4460    
    841.1434    
    829.3189    
    807.6407    
    801.7285    
    813.5530    
    808.6263    
    792.3676    
    799.7579    
    794.3384    
    809.1191    
    809.1191    
    802.2216    
    802.7144    
    801.2363    
    804.6852    
    790.3972    
    792.3682    
    812.5685    
    812.5686    
    802.7148    
    797.2952    
    790.8904    
    777.5878    
    784.4854    
    778.0806    
    785.9637    
    790.3979    
    803.7007    
    810.5983    
    777.0955    
    777.0956    
    787.9348    
    780.0517    
    771.6762    
    771.1836    
    779.5593    
    774.6326    
    774.6326    
    794.8328    
    786.9499    
    791.8768    
    800.7454    
    799.2672    
    805.1797    
    807.6432    
    796.3114    
    822.4240    
    837.2048    
    815.5264    
    802.7166    
    824.3950    
    816.5119    
    825.3805    
    818.9756    
    826.3660    
    846.0735    
    854.9420    
    845.0883    
    852.9715    
    864.3033    
    868.2448    
    870.7084    
    872.1865    
    885.4892    
    906.6750    
    898.2994    
    903.2263    
    917.0217    
    927.8608    
    944.1198    
    960.3785    
    956.9297    
    932.7880    
    919.9781    
    941.6566    
    958.4081    
    975.1595    
   1001.7648    
    989.9402    
   1036.7460    
   1033.2972    
   1032.3119    
   1022.4580    
   1017.0386    
   1026.8925    
   1046.6001    
   1062.3662    
   1061.8737    
   1062.8590    
   1091.4351    
   1087.0010    
   1078.6252    
   1079.6106    
   1078.6254    
   1111.6356    
   1147.6021    
   1146.6167    
   1131.3435    
   1123.9531    
   1131.8362    
   1137.2559    
   1142.1827    
   1143.6610    
   1109.1726    
   1138.7343    
   1149.0808    
   1137.7489    
   1134.7927    
   1131.3441    
   1108.6803    
   1132.8223    
   1132.8223    
   1146.1250    
   1133.3151    
   1125.9249    
   1114.1002    
   1115.5786    
   1090.9441    
   1080.5978    
   1074.6853    
   1064.3391    
   1027.8800    
   1025.4167    
   1049.0658    
   1048.0806    
   1036.7488    
   1006.6946    
   1005.7093    
   1010.6363    
    991.9141    
    980.0896    
    935.2549    
    924.4160    
    937.2258    
    924.4161    
    919.4892    
    901.2596    
    881.0594    
    859.8739    
    854.9470    
    842.1371    
    835.7324    
    831.2982    
    817.5028    
    804.2004    
    805.6783    
    781.0440    
    768.2341    
    777.1026    
    773.1611    
    768.2343    
    747.5413    
    745.5707    
    730.2973    
    720.9363    
    708.1264    
    714.0388    
    692.8531    
    691.3752    
    671.6676    
    647.0333    
    650.9748    
    650.9749    
    642.5991    
    665.7557    
    640.6286    
    633.7309    
    641.1214    
    638.6580    
    638.6581    
    615.9944    
    597.2723    
    599.2431    
    596.7796    
    579.0429    
    559.3353    
    552.9304    
    537.6572    
    528.2961    
    534.7011    
    547.0184    
    546.5258    
    538.6429    
    537.6575    
    510.5596    
    528.2966    
    540.6139    
    520.4136    
    501.1988    
    485.4327    
    487.8962    
    504.6479    
    505.1405    
    493.8087    
    472.6231    
    465.7256    
    468.6817    
    470.1599    
    449.9596    
    449.9597    
    440.5986    
    441.0914    
    431.7303    
    433.7012    
    432.7159    
    436.1647    
    433.7014    
    420.8915    
    421.3842    
    437.1503    
    426.3112    
    425.3259    
    419.9063    
    413.0088    
    419.9065    
    415.4724    
    400.1991    
    406.6041    
    406.6042    
    401.1846    
    397.2431    
    396.7505    
    387.8822    
    396.7506    
    380.9846    
    348.4672    
    354.8723    
    342.5549    
    348.4674    
    372.1165    
    361.7701    
    363.7409    
    376.5508    
    358.3215    
    358.8142    
    346.9897    
    348.4679    
    345.0190    
    344.0337    
    349.9460    
    368.6683    
    334.1801    
    329.2533    
    325.3119    
    332.7023    
    334.1803    
    337.1365    
    344.0342    
    314.9657    
    295.2581    
    307.5754    
    304.1266    
    308.0683    
    305.6048    
    305.6049    
    302.6488    
    275.5510    
    299.6928    
    317.9224    
    317.9224    
    307.0833    
    305.1127    
    301.6638    
    297.2296    
    295.7517    
    298.2151    
    292.3030    
    293.7812    
    276.5370    
    271.6103    
    282.4494    
    277.0299    
    285.4056    
    301.6645    
    304.1280    
    310.5330    
    287.3766    
    288.3622    
    281.4646    
    272.5961    
    276.0450    
    285.8990    
    270.6256    
    276.5379    
    276.5380    
    284.9137    
    274.0747    
    263.2355    
    250.9183    
    256.3380    
    258.3089    
    257.3235    
    271.6116    
    260.2798    
    283.4362    
    284.9143    
    271.6118    
    282.4510    
    280.4804    
    272.5973    
    261.7583    
    248.4557    
    258.8022    
    258.3097    
    258.3097    
    263.2366    
    245.4998    
    246.9780    
    237.1243    
    227.2705    
    221.3582    
    226.7779    
    241.0660    
    255.8468    
    250.9198    
    234.6612    
    237.1247    
    215.9391    
    224.3149    
    224.8077    
    228.2565    
    230.2274    
    247.4715    
    238.6032    
    240.0813    
    237.1253    
    222.8373    
    239.0961    
    225.7936    
    215.9398    
    213.9691    
    225.3011    
    243.0379    
    237.1257    
    221.8524    
    224.3159    
    233.1844    
    245.9943    
    227.7650    
    230.7211    
    225.7943    
    213.4771    
    217.4187    
    229.2433    
    205.5943    
    201.6528    
    202.6383    
    209.5359    
    217.4190    
    211.9995    
    208.0580    
    210.0289    
    202.6386    
    190.8141    
    202.6387    
    203.6241    
    210.0292    
    195.7413    
    200.1754    
    205.1024    
    207.0733    
    226.2882    
    223.3321    
    210.0296    
    212.9857    
    192.7856    
    187.3661    
    200.6687    
    202.1468    
    202.1469    
    197.2201    
    207.5665    
    185.3957    
    195.2495    
    195.7423    
    212.4938    
    207.0742    
    198.2059    
    187.8594    
    190.3229    
    199.1915    
    194.7573    
    201.1623    
    205.5966    
    201.1624    
    191.8014    
    182.9330    
    184.9038    
    194.7578    
    192.7870    
    184.4113    
    199.6848    
    195.2506    
    183.4261    
    197.2215    
    165.1967    
    193.2800    
    187.8605    
    183.4264    
    174.0654    
    169.6312    
    165.6898    
    206.0904    
    197.7147    
    190.8171    
    190.3244    
    189.3392    
    183.9197    
    199.1931    
    215.4519    
    212.9885    
    194.7591    
    209.0471    
    192.2957    
    191.3104    
    172.5883    
    164.7052    
    153.8661    
    149.4320    
    179.4861    
    192.7888    
    178.9935    
    173.5740    
    182.9352    
    175.0523    
    203.6283    
    175.5450    
    178.9939    
    188.3551    
    180.9648    
    191.3114    
    212.0044    
    189.3407    
    179.9797    
    173.5748    
    171.1114    
    172.0968    
    169.6334    
    181.4580    
    171.1117    
    178.5020    
    175.5459    
    170.1264    
    168.1557    
    179.4876    
    179.9804    
    180.9658    
    189.8343    
    176.0390    
    172.0976    
    160.2731    
    167.6635    
    188.3566    
    180.4735    
    202.1519    
    190.3274    
    182.4445    
    204.6156    
    200.6741    
    190.8204    
    186.8789    
    170.6203    
    173.0837    
    160.2738    
    166.1862    
    170.1278    
    169.6351    
    184.9086    
    183.9233    
    183.4306    
    163.7231    
    155.8402    
    158.7963    
    148.9066    
    152.3915    
    169.6356    
    163.7235    
    184.4165    
    190.3288    
    166.1871    
    163.7237    
    155.3481    
    170.1288    
    189.3438    
    187.8657    
    174.5631    
    165.2021    
    150.4214    
    149.4361    
    163.2316    
    178.9976    
    172.1001    
    156.8267    
    148.8405    
    148.8372    
    159.2904    
    154.8563    
    162.2466    
    154.3637    
    165.2029    
    160.7687    
    156.3346    
    160.7689    
    165.6958    
    173.5789    
    162.2471    
    148.7976    
    167.6668    
    158.3058    
    148.7878    
    153.8716    
    151.4083    
    164.7109    
    159.2915    
    148.7712    
    148.7679    
    152.3940    
    150.4232    
    148.7580    
    148.7547    
    148.7514    
    148.7481    
    148.7448    
    148.7415    
    151.4090    
    166.1898    
    169.6386    
    157.8142    
    156.3362    
    166.1900    
    151.4094    
    148.7151    
    148.7118    
    148.7085    
    148.7052    
    148.7019    
    148.6986    
    167.6686    
    183.4347    
    148.6887    
    148.6854    
    148.6821    
    148.6788    
    148.6755    
    148.6722    
    156.8298    
    148.9470    
    154.8593    
    150.4250    
    152.3960    
    149.4398    
    154.8595    
    160.2791    
    160.2792    
    160.7719    
    165.2062    
    148.6326    
    148.6293    
    148.6260    
    148.6227    
    174.5676    
    178.0166    
    174.5677    
    158.3090    
    160.2798    
    163.7288    
    178.0169    
    155.8459    
    149.9335    
    168.1632    
    161.2655    
    170.6268    
    171.6122    
    158.3096    
    148.5732    
    149.4413    
    148.5666    
    156.3391    
    154.8611    
    158.8026    
    148.5534    
    154.8613    
    154.3687    
    148.5435    
    152.8907    
    152.3981    
    148.5336    
    162.2520    
    175.0620    
    170.1351    
    158.3106    
    163.7303    
    154.8620    
    158.3108    
    163.2378    
    168.6574    
    172.5990    
    178.0187    
    176.0479    
    178.5114    
    176.0480    
    170.1358    
    159.7894    
    185.4094    
    168.6579    
    148.4709    
    148.4676    
    148.4643    
    148.4610    
    148.4577    
    148.4544    
    148.4511    
    148.4478    
    148.4445    
    148.4412    
    154.8633    
    148.4346    
    148.4314    
    148.4280    
    148.4247    
    163.2393    
    155.8491    
    155.8491    
    155.3565    
    159.2981    
    148.4050    
    148.4016    
    148.3983    
    153.8786    
    148.3918    
    148.3884    
    148.3851    
    150.4300    
    148.3786    
    151.4155    
    159.2987    
    153.3865    
    148.3654    
    155.8501    
    148.3587    
    152.8940    
    148.3522    
    175.0652    
    198.2216    
    180.4848    
    148.3390    
    148.3356    
    156.3432    
    152.8945    
    149.9383    
    148.3224    
    148.3192    
    148.3159    
    148.3126    
    148.3093    
    148.3060    
    159.7926    
    151.4169    
    148.2961    
    170.6320    
    165.7051    
    158.3148    
    180.9786    
    175.0664    
    168.1688    
    172.1104    
    185.4131    
    148.9541    
    170.1398    
    155.8519    
    174.0814    
    162.2569    
    174.0815    
    174.5742    
    148.2433    
    148.2400    
    148.2367    
    148.2334    
    148.2301    
    159.3013    
    172.6040    
    148.2202    
    148.9550    
    150.9258    
    152.8966    
    168.6627    
    153.3894    
    162.2579    
    148.1971    
    159.3019    
    165.2142    
    163.7362    
    175.5607    
    168.1705    
    192.3123    
    154.8681    
    148.1707    
    148.1674    
    148.1641    
    177.0394    
    195.7616    
    164.2295    
    158.3172    
    148.1476    
    148.1443    
    171.6201    
    174.0835    
    157.8249    
    151.4199    
    158.8103    
    148.1245    
    148.1212    
    148.1179    
    158.3179    
    153.3911    
    148.1080    
    149.9423    
    148.1014    
    148.0981    
    148.0948    
    157.8256    
    151.4207    
    148.0849    
    148.0816    
    148.0783    
    161.2747    
    148.0717    
    166.2018    
    204.6317    
    164.2311    
    148.0585    
    159.7970    
    156.3483    
    148.0486    
    148.0453    
    148.0420    
    148.0387    
    148.0354    
    186.8953    
    174.5781    
    163.7391    
    150.9293    
    148.0189    
    148.0156    
    148.0123    
    148.0090    
    148.0057    
    162.2614    
    174.5787    
    169.6518    
    147.9925    
    147.9892    
    147.9859    
    147.9826    
    157.3349    
    147.9760    
    147.9727    
    147.9694    
    152.9010    
    148.4668    
    147.9595    
    173.1014    
    161.2769    
    198.7215    
    184.4335    
    183.4482    
    147.9397    
    148.4673    
    151.9162    
    161.7701    
    147.9265    
    147.9232    
    147.9200    
    147.9167    
    147.9133    
    147.9100    
    147.9752    
    149.9459    
    147.9002    
    181.4782    
    155.3658    
    147.8903    
    149.4535    
    158.8147    
    147.8804    
    147.8771    
    171.1322    
    155.8589    
    147.8672    
    147.8639    
    147.8606    
    147.8573    
    147.8540    
    164.7275    
    169.6545    
    151.9178    
    147.8408    
    147.8375    
    157.3375    
    154.3815    
    160.2938    
    147.8243    
    147.8210    
    147.8177    
    172.1186    
    153.3965    
    147.8078    
    152.9039    
    184.4361    
    152.9040    
    147.7946    
    147.7913    
    147.7880    
    147.7847    
    147.7814    
    147.7781    
    147.7748    
    147.7715    
    147.7682    
    147.9777    
    151.9193    
    147.7583    
    147.7550    
    153.3975    
    164.7294    
    184.9297    
    158.8172    
    147.7385    
    147.7352    
    147.7319    
    147.7286    
    157.8322    
    155.8615    
    192.8133    
    151.4274    
    147.7121    
    147.7088    
    147.7055    
    147.7022    
    147.6989    
