  11100 13  1 ##LUAG7.SP PUC001 BMW  .000 # SI 060593 00.00   2        
  PROGRAM PE-FILECONVERT MAC VERSION 1.0                               
  USER BMW DATE & TIME  1993 03 12 00.10 16.00    9.9300    295K U     
 AU1 TM  50     0     0 LUAG            1.000000 - 1.400000 .00020     
 FILE NAME ON IBM-PC  = LUAG7.SP          ON MAC= P12033.02            
 NO_POINTS  =  2001.    pts   DATA_INTV =  .00020 _m                   
 MIN_LAMBDA =  1.000000 _m     MIN_DATA =    .60200                    
 MAX_LAMBDA =  1.400000 _m     MAX_DATA =    .84820                    
 SCANSPEED  = 15.000000 nm/min SLITWIDTH=   .20000 nmITA =   0.        
       RESP =    .500  sec        ISMS =   0.       DATE=93/05/06      
       INST = 509.                    ? =   0.                         
 ITHACA CORP SAMPLE                                                    
 0:10:17  12-03-1993                                                   
  This spectra is part of Database LASERS
 Database LASERS was created by Pat Cross working 
 at NASA Langley Research Center, Internal Operations Group,
 Aerospace Electronics Systems Division, Remote Sensing 
 Technology Branch. phone:(757)864-1633   fax:(757)864-7894 
     e-mail p.l.cross@larc.nasa.gov 
     homepage http://aesd.larc.nasa.gov/laser/dbmain.htm
  EOH.(1X,F11.4)                                                       
  2001.         
     72.9420    
    118.8751    
    152.7999    
     17.5409    
     68.1822    
    121.3666    
     63.3838    
    123.8148    
     92.3881    
    165.0282    
     53.8000    
     80.3641    
    140.8438    
     68.3268    
     68.3412    
     10.5155    
     37.0177    
     20.1712    
     32.2315    
     94.9812    
     66.0177    
     32.2760    
      0.0001    
     90.2138    
     78.1525    
     27.5246    
    153.1785    
     15.5188    
     54.0865    
    143.5374    
     71.0083    
    100.0079    
    119.3715    
     71.0517    
    114.5633    
    141.2052    
     44.5637    
     75.9423    
     44.5950    
     54.2550    
     13.3131    
     51.8742    
     22.9750    
     71.2083    
     73.6384    
     71.2384    
     95.4058    
     90.5888    
     83.3583    
    102.7058    
    131.7535    
    136.6130    
    175.4110    
    243.4786    
     32.7942    
     25.5844    
     28.0090    
     13.5798    
      0.0001    
      0.0001    
      0.0001    
     23.2731    
     64.2605    
     28.1160    
     95.6856    
     88.4532    
     52.2617    
    139.2758    
    129.6051    
    173.2423    
    144.1710    
    122.3956    
     98.2273    
    100.6606    
     64.4508    
      0.0001    
     21.0894    
      4.2586    
      4.2754    
     16.3190    
     59.7075    
     71.7938    
     30.8163    
     64.5881    
     83.9152    
     30.8608    
     91.1893    
     91.2062    
     11.6410    
    168.6996    
     74.3457    
     86.4361    
      0.0001    
      0.0001    
      0.0001    
      0.0001    
      6.9533    
      0.0001    
      0.0001    
      0.0001    
     40.7272    
     45.5587    
    103.5154    
     91.4462    
      2.2667    
     74.5711    
     81.8298    
     89.0863    
    127.7977    
     62.5637    
     50.5238    
     77.0727    
     79.5023    
     69.8615    
    166.6502    
     14.4616    
     91.6404    
     96.4865    
     28.9492    
     45.8354    
    161.8900    
     74.8108    
     55.5178    
    103.8292    
     48.3203    
     67.6269    
      0.0001    
      0.0001    
     74.9169    
     60.4468    
     70.1120    
      5.0691    
     46.0280    
    118.4899    
     84.6578    
     50.8909    
     87.1100    
      0.0001    
    113.7193    
     34.0797    
     87.1643    
     75.1024    
      0.0001    
      0.0001    
     17.2946    
     48.6235    
     63.1116    
     94.5156    
      0.0001    
    133.2471    
     92.1469    
    164.7728    
    121.1878    
    164.8043    
    176.9454    
    169.6814    
     77.7427    
    118.8413    
     72.9372    
      0.0001    
    106.7918    
     22.3524    
     19.9682    
      7.9441    
      0.0001    
     27.2337    
     68.2292    
     24.8536    
    165.0234    
      0.0001    
      0.0001    
    123.8861    
    102.1266    
    145.7030    
    136.0304    
     15.3350    
     65.9635    
    174.8504    
     39.4629    
     70.8336    
      0.0001    
      8.2035    
      1.0012    
      5.8257    
     80.5605    
     70.9120    
     25.1277    
     17.9146    
    136.2298    
    138.6714    
    165.3332    
    104.8199    
    143.5543    
    206.6451    
     61.3908    
    133.9057    
    148.4578    
     59.0200    
     51.8032    
     92.8488    
      0.0001    
     78.3851    
      0.0001    
     39.8262    
    102.5851    
    112.2779    
    102.6129    
    112.3008    
     61.5919    
    180.1624    
     59.2078    
     68.8725    
    148.6815    
     83.3860    
     73.7409    
    155.9948    
     32.7786    
     66.5441    
     64.1473    
      3.9296    
    143.9533    
     35.2534    
      0.0001    
    119.7809    
     71.4710    
     25.6758    
     66.6742    
     23.2959    
    134.3746    
     86.0250    
      0.0001    
    105.3823    
     66.7549    
      0.0001    
    136.8813    
     23.4101    
      1.7648    
    103.0497    
    117.5746    
     57.2056    
     98.2526    
    103.1124    
    107.9529    
     95.8834    
     62.0941    
     88.6618    
      6.7143    
      4.3223    
    103.2066    
     91.1302    
     98.3998    
     76.6702    
     74.2698    
    149.2523    
     98.4528    
     79.1420    
    142.0237    
     98.4951    
     26.1350    
    156.6046    
     84.0394    
     55.0916    
     23.7863    
      0.0001    
     33.4436    
     38.2770    
      0.0001    
     74.4759    
      0.0001    
      0.0001    
      2.2354    
      9.4609    
    154.3592    
     28.7484    
     91.4728    
    118.0806    
    195.6534    
     60.1361    
     98.7822    
     45.6959    
     98.8063    
     65.0169    
      0.0001    
     24.0675    
     45.7645    
     19.2772    
      7.2607    
      0.0001    
      0.0001    
     38.6017    
     60.3143    
     45.8547    
    108.6373    
     89.3214    
    178.9051    
    137.7141    
     99.0247    
    142.5859    
     67.6582    
     48.3792    
    103.9100    
      0.0001    
     33.9570    
    101.5354    
      0.0001    
      0.0001    
      0.0001    
     12.3557    
      0.0001    
      9.9738    
     87.1305    
    133.0828    
     82.3276    
     36.5186    
     65.4577    
      5.2420    
     72.7228    
    106.5589    
     72.7493    
    108.9957    
    169.5507    
      0.0001    
    121.1311    
     14.9710    
     55.9415    
     53.5460    
     46.3240    
     58.3903    
    106.7013    
    104.2998    
     87.3946    
     84.9905    
     68.1087    
     65.7118    
     68.1352    
     92.2892    
    104.3855    
     44.0596    
     44.0764    
      0.0001    
     32.0487    
     75.4676    
     51.3578    
     87.5706    
     73.0914    
     46.5694    
     22.4991    
     87.6177    
     53.8494    
     17.7235    
     29.7727    
      0.0001    
     22.5772    
     82.8688    
     73.2240    
    128.8234    
      0.9688    
    111.9157    
    145.8106    
    124.0407    
     46.7692    
     97.4624    
    165.2473    
    111.9906    
    126.5207    
    194.4060    
     56.4941    
     87.8781    
    196.8729    
    104.8151    
     61.3619    
     90.3452    
     49.3335    
     10.8158    
     46.9509    
    155.7238    
     37.3376    
     90.4188    
      6.0670    
     90.4465    
    138.8286    
     73.5746    
    129.1750    
    165.5208    
     90.5116    
    131.6315    
     47.1001    
     47.1121    
    107.4786    
     27.8696    
     18.2510    
     97.8521    
     27.9105    
     68.8990    
     76.1508    
    105.1494    
     59.2860    
    100.3385    
     83.4414    
    211.8405    
    192.4255    
    233.7529    
    243.4993    
     61.7882    
    129.4553    
     81.1198    
    170.6657    
    144.0186    
     85.9900    
     16.0847    
     59.4630    
     13.7023    
    136.8148    
    122.3050    
    168.3376    
    161.0755    
     33.0239    
     93.3433    
    110.2716    
    110.2837    
    100.6281    
    124.8235    
     71.6722    
    214.5728    
     83.7681    
     88.6172    
     52.4302    
     54.8545    
     47.6332    
     81.4199    
     21.1627    
     81.4428    
     79.0419    
     62.1627    
    110.4768    
    129.8359    
    180.7365    
    197.7421    
    141.9790    
    120.2084    
    146.8481    
    163.8227    
    112.9901    
     88.8355    
     67.1198    
    134.8025    
    120.2965    
    127.5693    
    156.6433    
    149.3854    
    120.3485    
    130.0377    
     93.7847    
    144.5918    
    163.9885    
     45.5611    
    154.3168    
    149.4833    
    125.2849    
     26.3369    
     79.3890    
     98.7183    
     72.1685    
     79.4216    
     86.6796    
    164.1229    
    110.8703    
    115.7211    
    181.1375    
     62.6107    
    101.2470    
     96.4299    
    125.4576    
     98.8654    
     77.1426    
    200.6386    
     77.1703    
     41.0075    
    207.9672    
     79.6252    
    132.8133    
    106.2186    
     62.7648    
     77.2510    
    132.8592    
    208.0484    
    149.8377    
     77.3053    
    149.8643    
    157.1430    
     77.3390    
     91.8357    
    169.2977    
     74.9627    
    149.9332    
     94.3070    
    171.7711    
     77.4246    
     82.2589    
    120.9426    
    166.9697    
    130.6491    
    210.6868    
    135.5095    
    150.0506    
    266.6797    
    167.0412    
     99.2792    
    104.1285    
    106.5541    
     26.9500    
    116.2463    
     55.8898    
     60.7261    
     92.1180    
     41.4646    
     80.0628    
     94.5663    
    116.3345    
    172.0508    
     60.8068    
    121.2023    
    230.3708    
    167.2433    
    223.1009    
    208.5263    
    191.5359    
    123.6965    
    193.9903    
    160.0445    
    172.1743    
     82.6506    
     70.5987    
     89.9268    
     51.3290    
     85.1159    
    198.9399    
    155.2883    
    186.8304    
    160.1607    
    215.9912    
    143.2254    
    206.3018    
    216.0301    
    230.6270    
    196.6183    
    150.5525    
    138.4526    
    162.6839    
    145.7393    
    136.0679    
     25.0279    
    172.4286    
     82.9122    
     87.7575    
    150.6553    
    194.3151    
    143.4117    
    153.1096    
    211.3516    
    240.5432    
    194.3793    
    313.7035    
    301.5028    
    148.3356    
    282.0171    
    226.0204    
    165.3332    
    177.4735    
    133.8646    
    148.4021    
    262.5854    
    250.4205    
    158.1266    
    228.5446    
    213.9734    
    201.8354    
    265.0922    
    228.5943    
    238.3321    
    199.4480    
    184.9002    
    238.3649    
    284.6541    
    216.5045    
    211.6537    
    134.0580    
    214.1093    
    187.4047    
    143.7780    
    189.8537    
    158.3384    
    182.5948    
    238.4937    
    245.8033    
    185.0553    
    304.3302    
    248.2716    
    306.7898    
    277.5301    
    265.3525    
    338.5849    
    323.9351    
    277.5678    
    323.9547    
    292.2265    
    231.3386    
    311.7758    
    250.8313    
    245.9746    
    404.8197    
    348.4823    
    333.8217    
    299.6384    
    263.0719    
    373.0092    
    331.4210    
    333.8767    
    333.8925    
    219.3260    
    358.3723    
    326.5912    
    243.6864    
    353.5165    
    285.1217    
    270.5084    
    331.5345    
    287.5948    
    292.4872    
    373.1609    
    277.8770    
    307.1616    
    304.7312    
    287.6618    
    304.7507    
    336.5279    
    231.6762    
    290.1474    
    356.1239    
    297.4867    
    427.2436    
    292.6260    
    437.0964    
    383.1145    
    422.3797    
    520.8422    
    419.9439    
    329.3233    
    476.5114    
    417.5231    
    368.4971    
    363.6156    
    302.5094    
    361.1906    
    444.5937    
    265.9705    
    385.7134    
    270.8636    
    270.8758    
    375.9457    
    373.5070    
    368.6206    
    398.0363    
    331.9421    
    402.9641    
    508.7284    
    429.9905    
    459.4912    
    437.3810    
    442.3013    
    454.6109    
    354.0406    
    385.8921    
    403.0584    
    344.2932    
    376.1170    
    417.8222    
    329.6490    
    444.8637    
    447.3258    
    486.7142    
    481.7953    
    508.9180    
    531.1278    
    555.8450    
    511.4126    
    536.0995    
    588.0286    
    444.9680    
    575.6768    
    440.0754    
    481.9060    
    449.9295    
    469.6177    
    413.1039    
    454.8823    
    481.9552    
    526.3472    
    511.5493    
    516.4988    
    603.0264    
    506.6539    
    538.7429    
    575.8275    
    575.8398    
    563.4843    
    504.2449    
    489.4619    
    575.8843    
    565.9968    
    605.6143    
    546.2498    
    491.9836    
    452.6132    
    479.6867    
    457.5556    
    598.2436    
    553.7250    
    546.3239    
    677.6917    
    670.2460    
    715.0419    
    692.6508    
    762.4547    
    615.6748    
    687.7025    
    727.5542    
    707.6396    
    655.4214    
    675.3092    
    717.6318    
    655.4499    
    652.9820    
    690.2753    
    615.7825    
    737.6260    
    807.5850    
    707.7453    
    765.1093    
    707.7639    
    700.3073    
    772.6301    
    730.2192    
    737.7094    
    707.8136    
    745.2174    
    740.2362    
    772.6974    
    762.7214    
    770.2176    
    735.2913    
    663.1158    
    800.2486    
    730.3337    
    810.2793    
    745.3170    
    772.7934    
    693.0149    
    757.8295    
    770.3298    
    867.9916    
    725.4335    
    750.3867    
    762.8735    
    730.4495    
    730.4632    
    790.3902    
    827.9440    
    805.4233    
    822.9523    
    880.6509    
    915.8568    
    865.6066    
    835.5220    
    946.1047    
    873.1674    
    893.2741    
    878.2155    
    865.6681    
    936.0753    
    981.4745    
    936.0967    
    973.9170    
    933.5991    
    981.5123    
   1082.7420    
   1042.2072    
   1159.0250    
   1174.3164    
   1087.8630    
   1204.9451    
   1302.1771    
   1240.7243    
   1279.1292    
   1189.6784    
   1291.9614    
   1358.7320    
   1248.4553    
   1325.3450    
   1317.6511    
   1230.5842    
   1397.4040    
   1474.8653    
   1480.0510    
   1456.7910    
   1511.1450    
   1602.0572    
   1724.7954    
   1769.3842    
   1800.9134    
   1919.5750    
   1843.0420    
   1864.1420    
   1985.8321    
   1935.4910    
   1975.2410    
   1914.3550    
   2020.3940    
   2020.4014    
   2057.6590    
   2039.0423    
   2081.6572    
   2068.3403    
   2167.1690    
   2161.8280    
   2215.4384    
   2339.2740    
   2239.6270    
   2255.7620    
   2274.6044    
   2339.3151    
   2350.1281    
   2296.1794    
   2242.3760    
   2245.0700    
   2253.1420    
   2169.9753    
   2132.5340    
   2071.1700    
   2167.3300    
   2253.1910    
   2280.1103    
   2317.8491    
   2334.0470    
   2320.5650    
   2431.4794    
   2464.0720    
   2523.9490    
   2529.4040    
   2578.5380    
   2633.2710    
   2679.9152    
   2707.4091    
   2798.3730    
   2790.0942    
   2795.6252    
   2859.2680    
   2934.2260    
   2779.0961    
   3048.5974    
   3040.2192    
   3023.4580    
   3166.4440    
   3068.2290    
   3076.6401    
   3076.6460    
   3015.1284    
   3087.8700    
   3146.8173    
   3101.9140    
   3068.2973    
   3059.9062    
   3104.7424    
   3296.3820    
   3273.7543    
   3441.3350    
   3447.0540    
   3541.4240    
   3838.8403    
   4102.3620    
   4205.7880    
   4552.3970    
   4804.1152    
   5248.4340    
   5553.3520    
   5872.6103    
   6161.0680    
   6433.8550    
   6626.7030    
   6656.8010    
   6596.6830    
   6354.6450    
   6259.2973    
   5933.9213    
   5699.6720    
   5389.4230    
   5242.3183    
   4985.1191    
   4795.1220    
   4807.3360    
   4618.9960    
   4622.0283    
   4324.8471    
   4390.5190    
   4336.7880    
   4435.4380    
   4498.4680    
   4435.4550    
   4564.7221    
   4486.4794    
   4591.8974    
   4700.9080    
   4603.9960    
   4752.6010    
   4776.9780    
   4661.5190    
   4783.0970    
   4700.9650    
   4582.9170    
   4492.5844    
   4185.4560    
   4005.7492    
   3862.5532    
   3648.2010    
   3419.0063    
   3282.7351    
   3049.2470    
   2979.4521    
   2810.1542    
   2645.0070    
   2562.9400    
   2535.6660    
   2391.6860    
   2375.4610    
   2240.6762    
   2200.4220    
   2195.0680    
   2088.1280    
   2045.5153    
   1979.1103    
   1783.8050    
   1749.6960    
   1760.1943    
   1564.3931    
   1668.5991    
   1450.4140    
   1458.1783    
   1546.2550    
   1422.0510    
   1437.5452    
   1422.0690    
   1463.3970    
   1515.1771    
   1447.9113    
   1375.7200    
   1419.5402    
   1344.8804    
   1344.8910    
   1244.9201    
   1285.8850    
   1280.7710    
   1227.0533    
   1188.7744    
   1188.7832    
   1255.2070    
   1265.4520    
   1181.1630    
   1311.6040    
   1401.6130    
   1381.0150    
   1388.7484    
   1411.9531    
   1388.7663    
   1440.3560    
   1396.5133    
   1486.9063    
   1621.9514    
   1593.3190    
   1705.5210    
   1786.8010    
   1781.5580    
   1958.3010    
   2184.7810    
   2359.7080    
   2577.1070    
   2716.9370    
   2904.8970    
   3207.0703    
   3522.4320    
   3758.6152    
   4024.0040    
   4109.3261    
   4400.3360    
   4604.7630    
   4508.3173    
   4701.7010    
   4656.2190    
   4532.4140    
   4445.3030    
   4313.8450    
   4103.5130    
   4012.3650    
   3816.7590    
   3764.5380    
   3793.5480    
   3672.0341    
   3712.4690    
   3732.7240    
   3686.4882    
   3889.5980    
   4041.8130    
   4198.1510    
   4433.4501    
   4635.1831    
   4949.3041    
   5240.3222    
   5532.4380    
   5915.7280    
   6061.3691    
   6188.4550    
   6382.2412    
   6339.3940    
   6306.5000    
   6234.3070    
   5944.8410    
   5710.4850    
   5409.5200    
   5066.5600    
   4814.6484    
   4562.8370    
   4201.2773    
   4068.4590    
   3767.7000    
   3683.8320    
   3517.1250    
   3323.4140    
   3360.3171    
   3227.2690    
   3120.3370    
   3103.5130    
   3025.1530    
   2961.0100    
   3033.5470    
   3000.0530    
   3019.6030    
   3005.6520    
   3008.4540    
   3067.1640    
   3109.2023    
   3050.3910    
   3112.0230    
   3137.2970    
   3014.0881    
   3159.8044    
   2994.5740    
   3078.4360    
   2977.8623    
   2827.9380    
   2963.9470    
   2927.7830    
   2811.3742    
   2908.3544    
   2756.1900    
   2778.2630    
   2863.9931    
   2756.2131    
   2709.4160    
   2756.2314    
   2528.7512    
   2679.2230    
   2670.9960    
   2531.5024    
   2545.1442    
   2433.6250    
   2384.8700    
   2355.1352    
   2279.6320    
   2276.9484    
   2129.4604    
   2156.2030    
   2092.1020    
   2017.5760    
   1890.4472    
   1903.6660    
   1714.3290    
   1635.9690    
   1737.9150    
   1542.3432    
   1602.1290    
   1526.7980    
   1397.5621    
   1371.8230    
   1376.9742    
   1343.5550    
   1389.8730    
   1289.6842    
   1305.0720    
   1415.6633    
   1274.3370    
   1310.2290    
   1258.9970    
   1187.4820    
   1238.5540    
   1177.3000    
   1197.7100    
   1184.9694    
   1052.8372    
   1106.1052    
   1078.1950    
   1009.8520    
   1063.0100    
   1141.7242    
   1045.2934    
   1151.9190    
   1154.4754    
   1060.5170    
   1167.2231    
   1129.0630    
   1149.4162    
   1174.8920    
   1167.2630    
   1136.7254    
   1129.1010    
   1042.8560    
   1180.0362    
   1091.0350    
   1144.4002    
   1205.5620    
   1106.2880    
   1113.9180    
   1144.4332    
   1213.2541    
   1295.1300    
   1307.9620    
   1356.7631    
   1405.6870    
   1436.6480    
   1446.9864    
   1418.6080    
   1382.5360    
   1421.1960    
   1447.0212    
   1369.6950    
   1390.2960    
   1428.9704    
   1359.4293    
   1259.3970    
   1354.3041    
   1315.7811    
   1359.4630    
   1305.5450    
   1315.8110    
   1338.9240    
   1277.3730    
   1277.3850    
   1262.0300    
   1246.6851    
   1290.2180    
   1290.2260    
   1233.9280    
   1290.2434    
   1205.8590    
   1182.9094    
   1213.5270    
   1076.1430    
   1129.4770    
   1088.8450    
   1028.0480    
   1099.0130    
   1050.8452    
   1081.2640    
   1096.4990    
   1106.6670    
   1119.3731    
   1132.0890    
   1167.7294    
   1096.5410    
   1165.1970    
   1078.7980    
   1106.7254    
   1188.1604    
   1106.7360    
   1183.0790    
   1147.4300    
   1132.1722    
   1229.0420    
   1144.9150    
   1239.2780    
   1290.4790    
   1252.0860    
   1277.6850    
   1367.5361    
   1282.8304    
   1254.6740    
   1272.5950    
   1236.7910    
   1252.1410    
   1252.1460    
   1252.1572    
   1193.4210    
   1073.9080    
   1180.6870    
   1084.0750    
   1010.6484    
   1030.8902    
    975.3181    
    894.7474    
    922.4197    
    837.0562    
    922.4324    
    829.5538    
    757.0580    
    802.0338    
    772.0513    
    759.5760    
    722.1730    
    749.6091    
    647.5909    
    727.1808    
    707.2665    
    749.6427    
    744.6580    
    650.1127    
    692.3674    
    692.3712    
    627.8086    
    724.7577    
    682.4474    
    563.4608    
    672.5223    
    642.7294    
    637.7797    
    590.6949    
    519.0547    
    627.8779    
    632.8462    
    580.8336    
    548.7059    
    509.2295    
    551.1956    
    511.7130    
    578.4008    
    630.4282    
    603.1662    
    578.4267    
    583.3816    
    593.2863    
    563.6164    
    472.3693    
    474.8348    
    558.6948    
    563.6411    
    487.1729    
    538.9587    
    571.0869    
    457.6699    
    546.3867    
    561.2239    
    521.7242    
    531.6024    
    492.1645    
    588.4588    
    608.2794    
    551.3880    
    588.4847    
    586.0214    
    502.0613    
    524.2636    
    548.9576    
    443.0314    
    460.2502    
    398.8640    
    418.5037    
    433.2383    
    507.0590    
    418.5233    
    384.2010    
    384.2157    
    482.4532    
    357.2957    
    428.3828    
    352.4182    
    408.7691    
    443.1406    
    536.7442    
    438.2472    
    403.8913    
    396.5450    
    359.8156    
    381.8567    
    325.6005    
    369.6318    
    293.8831    
    308.5342    
    408.8622    
    457.9867    
    381.9142    
    423.6082    
    435.8965    
    435.8990    
    438.3699    
    507.2707    
    443.2966    
    494.9683    
    492.5126    
    438.4067    
    318.4034    
    413.8711    
    369.7602    
    377.1224    
    325.7579    
    374.6884    
    399.1922    
    377.1493    
    335.5672    
    294.0707    
    389.4216    
    411.4988    
    482.7753    
    477.8587    
    404.1620    
    475.4137    
    477.8870    
    423.8117    
    458.2213    
    414.0108    
    318.5644    
    365.0153    
    406.6804    
    374.8241    
    418.9646    
    369.9411    
    316.1680    
    374.8535    
    362.6255    
    347.9559    
    369.9839    
    436.2020    
    421.4787    
    475.5539    
    426.4025    
    547.0665    
    446.0677    
    360.2495    
    532.2766    
    365.1595    
    350.4880    
    345.6036    
    326.0605    
    387.2309    
    279.7150    
    287.0359    
    316.3240    
    294.3679    
    340.7716    
    372.5764    
    306.5899    
    333.4568    
    333.4702    
    294.4081    
    311.5052    
    335.9297    
    289.5628    
    355.5081    
    262.7739    
    375.1030    
    402.0688    
    277.4096    
    345.7659    
    326.2215    
    267.6882    
    333.5678    
    236.0630    
    296.9592    
    360.4902    
    299.4179    
    253.1191    
    321.4015    
    299.4349    
    272.6305    
    236.1250    
    275.0789    
    253.1689    
    297.0359    
    272.6670    
    363.0204    
    262.9417    
    275.1227    
    297.0798    
    326.3728    
    407.1593    
    260.5434    
    233.7845    
    331.2916    
    263.0026    
    306.8873    
    297.1322    
    170.7008    
    319.1120    
    299.5982    
    163.4512    
    263.0524    
    321.5893    
    209.5623    
    255.7755    
    289.8843    
    238.7525    
    253.3610    
    238.7695    
    299.6726    
    324.0889    
    289.9367    
    282.6209    
    346.1067    
    282.6404    
    292.4019    
    287.5352    
    263.1692    
    243.7119    
    122.4427    
    175.7211    
    216.9899    
    163.6145    
    183.0236    
    134.5765    
    134.5837    
    212.1680    
    255.9409    
    273.0028    
    292.5042    
    270.5789    
    343.7986    
    338.9133    
    275.4745    
    405.0328    
    302.3083    
    253.5786    
    326.7339    
    282.8254    
    280.3906    
    292.5883    
    202.5678    
    251.1862    
    290.1766    
    222.0205    
    241.4787    
    287.7604    
    260.9593    
    341.4797    
    251.2385    
    348.8268    
    317.0753    
    299.9930    
    297.5623    
    290.2558    
    219.6695    
    243.9926    
    183.2720    
    173.5777    
    231.8571    
    202.7060    
    144.5301    
    183.3119    
    117.9332    
    154.2382    
    212.4568    
    178.4836    
    265.9778    
    202.7655    
    258.6852    
    290.3752    
    251.4039    
    195.5127    
    309.9117    
    173.6976    
    178.5526    
    249.0081    
    130.1283    
    173.7254    
    219.8516    
    156.7739    
    168.9018    
    183.4573    
    202.8734    
    190.7493    
    137.4457    
    156.8199    
    290.4958    
    193.2036    
    207.7719    
    139.9032    
    156.8574    
    217.5105    
    198.0925    
    144.7731    
    137.5146    
    147.2073    
    185.9919    
    234.5654    
    110.9464    
    144.8203    
     74.7398    
    173.8998    
    159.3705    
    106.1498    
     67.5354    
     79.6072    
     96.5083    
     26.6014    
    140.0435    
     41.0616    
    176.3859    
    135.2206    
     57.9496    
    125.5579    
    157.0316    
    164.3105    
    137.6742    
     82.1034    
    137.6960    
    222.5752    
    208.0060    
    193.4545    
    108.7012    
    101.4594    
    178.9147    
    174.0766    
     67.6920    
     38.7833    
     79.7723    
     46.0232    
    106.3405    
     99.1031    
    132.9523    
     91.8683    
     58.1061    
    103.9668    
     48.4815    
     48.4863    
     72.6023    
      0.0001    
    113.6602    
     87.1004    
    137.8640    
    157.2386    
     65.4083    
     41.3202    
     63.0165    
      0.0001    
     22.0784    
     63.0358    
      2.8598    
      7.6690    
     34.1434    
      0.0001    
    162.1622    
     94.4396    
     36.5799    
    154.9193    
    191.2850    
    242.3037    
    140.4109    
    135.5808    
     99.3214    
    121.0743    
    116.2512    
     84.8603    
     31.8359    
     70.3927    
      0.0001    
     22.2311    
      0.0001    
     65.5986    
      0.0001    
     84.9170    
     96.9920    
     53.5725    
     46.3540    
     70.4686    
      0.0001    
     99.4373    
    164.7656    
    109.1225    
     89.8038    
      0.0001    
     87.4042    
     87.4139    
      0.0001    
     15.1379    
     51.2531    
     15.1524    
     44.0475    
     80.2122    
      0.0001    
     44.0644    
     24.8151    
     58.5348    
    109.2190    
    184.2799    
    179.4356    
     24.8488    
     68.2135    
    150.3759    
    174.6154    
     85.1256    
     27.2878    
      0.0001    
      0.0001    
    135.8974    
      0.0001    
      0.0001    
      0.0001    
      0.0001    
     53.8301    
     22.5387    
    131.1058    
     32.1726    
     27.3683    
     34.5956    
     63.5163    
     87.6442    
     80.4087    
     61.1247    
     17.7848    
    109.4122    
     85.2654    
     44.2797    
     68.3858    
     17.8208    
     13.0200    
     99.7872    
      8.2203    
     94.9667    
    104.6365    
      0.0001    
     85.3365    
     87.7527    
     41.9470    
     58.8213    
     34.7399    
      1.0733    
    107.1069    
     41.9855    
    104.7004    
     10.7137    
     27.5594    
    102.3136    
     90.2427    
     54.0696    
    138.5929    
     42.0372    
     83.0280    
    114.4353    
    102.3571    
    179.8087    
     66.1671    
     30.0396    
     80.6558    
     37.2811    
     42.0986    
     68.6135    
     22.8512    
     42.1178    
     15.6486    
     37.3184    
     68.6496    
     63.8318    
     56.6060    
    162.9332    
    199.3194    
    124.2243    
    116.9805    
     47.0038    
    131.4985    
    177.5183    
     71.1276    
    104.9273    
      0.0001    
      0.0001    
     61.5088    
     30.2007    
      6.1499    
     47.0652    
      0.0001    
      0.0001    
    117.0735    
     59.1440    
    126.7539    
    153.3805    
    143.7018    
    153.3975    
    206.7482    
    192.1964    
    153.4193    
     71.2529    
     92.9779    
    138.9071    
     83.3318    
    155.8690    
     59.2283    
     44.7839    
      8.6935    
    105.0999    
    131.6979    
    124.4502    
    129.2886    
    124.4599    
    160.7730    
     88.2350    
    192.3067    
    143.8469    
    122.0767    
    177.7738    
    163.2357    
    187.4835    
    110.0133    
    105.1928    
    141.4700    
    126.9629    
     49.7271    
     56.9588    
     32.8772    
     25.6650    
     78.6767    
     47.3444    
    141.5171    
    110.0893    
     69.0568    
    158.4896    
    131.8719    
    170.6221    
    146.4007    
    175.4777    
     85.9852    
    194.8933    
    153.6878    
    127.0728    
    148.8617    
     52.2557    
    129.5121    
    153.7265    
    153.7337    
    156.1593    
    165.8549    
    153.7495    
    175.5612    
    158.6034    
    241.1336    
    107.8129    
     59.5558    
    161.0537    
    115.0836    
    119.9258    
    144.1250    
     93.3662    
    110.2788    
    173.2084    
     86.1419    
     76.4942    
    158.6893    
    119.9729    
    192.6376    
    107.9034    
    139.3423    
    173.2604    
     54.8400    
    122.4330    
    144.2133    
    141.7976    
    158.7582    
     66.9283    
      6.7431    
    134.5692    
    183.0163    
     95.9051    
    115.2382    
    180.6105    
     93.5097    
    153.9672    
     62.1555    
    173.3585    
    219.4741    
    221.9113    
    280.3213    
    217.0688    
    183.0927    
    358.4726    
    187.9573    
    144.3463    
    251.1376    
    105.6683    
     50.1916    
     88.7800    
     93.6134    
     57.4367    
    112.9527    
     93.6327    
    166.1999    
    185.6017    
     67.1102    
    185.6139    
     76.7678    
    185.6248    
    115.4169    
    120.2567    
    144.4539    
    236.6485    
    202.6418    
    270.7335    
     81.6405    
     79.2348    
    142.0696    
    125.1411    
     62.3710    
     62.3782    
     26.2564    
     50.3408    
      0.0001    
     57.5836    
     81.7044    
    178.4594    
    178.4666    
    185.7471    
    185.7544    
    200.3173    
    163.9486    
    147.0029    
    207.6190    
    159.1273    
     62.4758    
    118.0033    
    156.7243    
     67.3174    
    166.4214    
     57.6811    
    183.4052    
    217.3892    
    103.5444    
    103.5492    
    176.1546    
     91.4884    
    108.4019    
    154.3664    
     36.0592    
     86.6844    
     62.5709    
    183.4718    
    183.4767    
      9.6243    
     67.4185    
    118.1240    
     96.3840    
    171.3873    
    135.0732    
     91.5789    
    154.4499    
    166.5667    
    125.4226    
    139.9443    
     98.8510    
    139.9564    
    198.1240    
    108.5359    
    183.5809    
      0.0001    
     57.8798    
     33.8007    
     57.8918    
     43.4436    
     74.7819    
     43.4556    
     60.3240    
    106.1788    
     82.0407    
    103.7749    
     48.3010    
    137.6331    
    232.2275    
    113.4658    
    127.9741    
    166.7095    
     45.9233    
    137.6669    
     79.6855    
     48.3540    
     82.1142    
     72.4697    
     45.9642    
     12.2776    
     65.2541    
      0.0001    
    132.8906    
     21.9270    
    130.4835    
    171.6476    
     62.8792    
    254.2339    
    108.7495    
     74.9554    
    137.7721    
      0.0001    
    154.7281    
    162.0025    
     84.6373    
     94.2973    
     48.4839    
      7.5766    
      0.0001    
      0.0001    
      0.0001    
      0.0001    
      0.0001    
     62.9828    
     58.1699    
     89.5264    
    125.7717    
    237.3227    
     87.1330    
     72.6637    
     24.4906    
     91.9805    
    159.6984    
    135.4974    
     92.0022    
    104.0766    
     10.0975    
    137.9377    
     96.8472    
     94.4372    
     58.2614    
     63.0900    
      0.0001    
    118.6252    
    113.7978    
     70.3518    
     24.5856    
     55.8970    
     84.8410    
     36.6340    
     48.6825    
     55.9162    
     48.6969    
     31.8479    
     75.2254    
     63.1779    
      5.4114    
     17.4352    
      0.0001    
     22.2575    
    109.0549    
     60.7960    
     80.0953    
     46.3540    
     22.2887    
     53.5942    
      0.0001    
     63.2441    
     68.0726    
     15.0959    
     22.3188    
     43.9910    
      0.0001    
     17.5289    
     84.9978    
     48.8365    
    121.2349    
     89.8363    
    155.1213    
    186.6316    
    196.3456    
    218.2010    
    135.7826    
    128.5347    
    155.1576    
    143.0586    
     60.9477    
     87.4778    
     29.6465    
     12.8134    
     75.4362    
      0.0001    
      5.6179    
     82.6916    
     97.1802    
     51.3578    
      8.0449    
     92.3700    
    123.7859    
    189.1812    
     87.5586    
    116.5482    
     80.3279    
     29.7294    
    143.1711    
     99.6593    
    126.2501    
      0.0001    
     87.6056    
     82.7808    
      0.0001    
      0.0001    
