  11100 13  1 ##LUAG6.SP PUC001 BMW  .000 # SI 060593 00.00 01         
  PROGRAM PE-FILECONVERT MAC VERSION 1.0                               
  USER BMW DATE & TIME  1993 03 12 23.41 19.00    9.9300    295K U     
 AU1 TM  50     0     0 LUAG            1.500000 - 2.200000 .00020     
 FILE NAME ON IBM-PC  = LUAG6.SP          ON MAC= P12023.01            
 NO_POINTS  =  3501.    pts   DATA_INTV =  .00020 _m                   
 MIN_LAMBDA =  1.500000 _m     MIN_DATA =    .39750                    
 MAX_LAMBDA =  2.200000 _m     MAX_DATA =    .85740                    
 SCANSPEED  = 15.000000 nm/min SLITWIDTH=   .20000 nmITA =   0.        
       RESP =    .500  sec        ISMS =   0.       DATE=93/05/06      
       INST = 509.                    ? =   0.                         
 ITHACA CORP. SAMPLE                                                   
 3:41:19  12-03-1993                                                   
  This spectra is part of Database LASERS
 Database LASERS was created by Pat Cross working 
 at NASA Langley Research Center, Internal Operations Group,
 Aerospace Electronics Systems Division, Remote Sensing 
 Technology Branch. phone:(757)864-1633   fax:(757)864-7894 
     e-mail p.l.cross@larc.nasa.gov 
     homepage http://aesd.larc.nasa.gov/laser/dbmain.htm
  EOH.(1X,F11.4)                                                       
  3501.         
    252.0165    
    252.1222    
    332.4864    
    237.7758    
    250.0120    
    237.9859    
    204.1649    
    209.1122    
    209.2177    
    180.2835    
    151.3871    
     69.5507    
    120.2265    
    173.4505    
    130.0848    
    168.8279    
    152.0209    
    101.4750    
    186.0694    
    217.6464    
    229.8717    
    263.9440    
    244.6330    
    264.1544    
    254.5500    
    269.2247    
    305.7976    
    242.7338    
    170.1984    
    286.6584    
    277.0396    
    197.1202    
    267.5349    
    301.6697    
    175.6653    
    168.5204    
    226.7112    
    243.7909    
    197.8597    
     94.1634    
    176.2987    
    198.1749    
    162.0098    
    171.7856    
    186.3893    
    133.3583    
    235.0367    
    189.1327    
    196.4910    
    189.3435    
    245.1592    
    160.5467    
    228.3964    
    165.5898    
    257.7112    
    187.5537    
    209.4409    
    299.3375    
    219.3382    
    238.8326    
    175.9911    
    127.8085    
    152.0415    
    185.9785    
    149.8401    
    191.0244    
    229.8766    
    147.7382    
    283.4792    
    300.5974    
    254.5512    
    286.2200    
    252.3313    
    259.7189    
    276.8205    
    293.9367    
    345.1651    
    391.6371    
    260.2466    
    311.3893    
    382.1797    
    345.6964    
    270.3745    
    292.3544    
    260.8730    
    287.7032    
    278.0851    
    234.5120    
    263.7250    
    263.8308    
    237.2510    
    278.6085    
    198.7120    
    189.1375    
    244.9514    
    228.0795    
    332.6573    
    288.9636    
    340.1720    
    286.7436    
    279.5616    
    262.6681    
    340.5896    
    279.8806    
    279.9792    
    248.5340    
    255.9117    
    377.7034    
    260.9775    
    207.7622    
    222.3968    
    171.6948    
    244.4216    
    254.2217    
    225.2446    
    261.7145    
    218.1828    
    242.5199    
    296.0369    
    286.4209    
    325.4382    
    315.8131    
    296.4548    
    303.8634    
    418.5882    
    330.8389    
    277.4413    
    311.5722    
    311.6844    
    333.6898    
    258.4457    
    307.1311    
    421.8759    
    287.8968    
    297.7218    
    273.5334    
    205.7621    
    278.6024    
    220.4985    
    145.6715    
    230.3987    
    225.6598    
    233.0351    
    204.0776    
    252.6425    
    240.6173    
    345.2274    
    265.0837    
    255.4813    
    262.8724    
    207.2345    
    343.3199    
    297.1858    
    304.5837    
    311.9855    
    198.0828    
    236.9352    
    322.0321    
    305.1102    
    322.2431    
    317.4826    
    232.6101    
    225.4425    
    300.7790    
    317.9033    
    342.3528    
    271.9380    
    335.2547    
    371.9270    
    318.4278    
    320.9648    
    345.4228    
    304.1486    
    355.3810    
    453.2160    
    399.5118    
    428.9530    
    397.2796    
    263.4951    
    343.8230    
    309.8556    
    409.9146    
    327.0988    
    346.6868    
    378.4826    
    312.8134    
    288.6105    
    366.6045    
    206.3976    
    274.3536    
    337.6766    
    301.2883    
    279.5276    
    364.7989    
    279.7332    
    326.0287    
    389.5097    
    423.8227    
    409.2640    
    304.5581    
    309.5265    
    470.7618    
    404.7903    
    395.1308    
    451.4726    
    348.9953    
    371.0404    
    446.8901    
    437.2129    
    317.7680    
    339.7801    
    347.1900    
    361.9129    
    293.8831    
    332.8916    
    301.3785    
    303.9182    
    274.8696    
    347.9265    
    275.0826    
    362.7526    
    431.2403    
    285.1083    
    304.6495    
    448.6847    
    338.9157    
    356.0786    
    283.2040    
    229.9640    
    285.8462    
    276.2339    
    324.9465    
    286.1616    
    235.3294    
    269.3817    
    325.3662    
    235.6488    
    289.1158    
    286.7874    
    146.5386    
    287.0005    
    272.5380    
    299.3606    
    301.8891    
    265.5763    
    428.8684    
    426.5250    
    368.0313    
    434.0749    
    451.3032    
    373.2208    
    476.0135    
    446.7231    
    459.0785    
    449.3831    
    451.9367    
    420.2442    
    391.0323    
    415.5634    
    371.7313    
    427.9916    
    289.2048    
    408.6514    
    359.9586    
    401.5397    
    323.6497    
    323.7546    
    384.7675    
    445.9585    
    372.7805    
    331.4771    
    351.0524    
    341.4199    
    373.2000    
    375.7402    
    368.5313    
    466.3850    
    412.6665    
    342.0524    
    403.1098    
    322.7896    
    408.2092    
    376.5818    
    330.4056    
    315.9192    
    367.1437    
    320.9904    
    360.0466    
    340.6616    
    311.5795    
    355.4885    
    345.8453    
    389.8279    
    365.5495    
    353.4652    
    426.7788    
    363.4237    
    404.9948    
    427.0940    
    441.8705    
    405.3096    
    483.7123    
    537.8218    
    454.5237    
    398.4073    
    344.8830    
    435.2635    
    420.7088    
    386.6276    
    430.6871    
    340.5432    
    279.8878    
    369.9705    
    309.2400    
    321.4954    
    302.1548    
    282.8400    
    292.6504    
    297.6122    
    305.0090    
    336.7195    
    220.3577    
    268.9157    
    239.9321    
    361.4851    
    312.9243    
    322.7542    
    245.1944    
    342.4248    
    383.9489    
    357.2420    
    403.6818    
    345.2799    
    274.9109    
    384.4751    
    443.2020    
    374.9268    
    460.5388    
    375.1434    
    326.5460    
    355.8563    
    424.2739    
    443.9322    
    397.6163    
    348.9757    
    547.2465    
    451.6924    
    385.8407    
    442.1184    
    466.6909    
    461.9047    
    565.0942    
    496.4102    
    447.5320    
    459.8744    
    357.4240    
    447.8475    
    447.9555    
    360.1761    
    396.8535    
    362.8284    
    280.2737    
    406.9315    
    292.6224    
    365.6803    
    341.4309    
    268.6712    
    341.6470    
    409.9979    
    354.0272    
    417.5403    
    344.4958    
    373.8298    
    479.0093    
    442.3945    
    352.2141    
    405.9588    
    398.7404    
    389.0801    
    545.8921    
    479.7433    
    538.7244    
    477.4997    
    389.6125    
    470.3612    
    423.9894    
    473.0230    
    470.6746    
    470.7766    
    399.9967    
    446.5194    
    446.6188    
    419.8409    
    427.2779    
    398.0791    
    439.6999    
    464.2719    
    403.2740    
    430.2383    
    391.2857    
    335.3719    
    469.6915    
    430.6577    
    442.9897    
    521.4890    
    438.3036    
    561.0128    
    502.1782    
    448.4011    
    463.1810    
    414.4029    
    409.6217    
    497.7896    
    439.1440    
    449.0333    
    485.8520    
    446.7894    
    503.2256    
    464.1269    
    518.1481    
    535.4423    
    530.6360    
    525.8272    
    570.1680    
    521.1279    
    575.3049    
    565.5634    
    563.2114    
    558.3997    
    666.9846    
    597.9826    
    610.4150    
    524.4237    
    482.8355    
    559.0206    
    576.3524    
    596.1512    
    537.2164    
    522.5941    
    439.4238    
    515.4396    
    473.8748    
    589.3896    
    547.6782    
    476.6404    
    555.2539    
    523.4306    
    528.4471    
    570.3248    
    617.2283    
    496.8717    
    624.8375    
    607.6767    
    629.9797    
    677.0224    
    615.3901    
    637.6942    
    669.9146    
    628.0389    
    734.5043    
    625.7737    
    657.9751    
    752.1885    
    631.0251    
    628.6594    
    616.4348    
    599.2910    
    619.1099    
    606.8861    
    582.3694    
    663.8589    
    555.5156    
    597.4533    
    600.0233    
    592.7373    
    654.4949    
    629.9166    
    575.8237    
    568.5441    
    635.1629    
    674.7915    
    724.4092    
    618.2123    
    542.0280    
    714.8079    
    640.7327    
    690.2590    
    685.4120    
    633.6402    
    540.2053    
    656.0662    
    596.9723    
    685.9386    
    740.5426    
    658.9550    
    698.6206    
    711.1078    
    659.2713    
    723.7061    
    780.8897    
    798.3962    
    820.9027    
    845.9294    
    870.9799    
    866.0879    
    841.2526    
    941.3164    
    916.3819    
    869.0018    
    979.2385    
    966.8019    
    896.7945    
    936.9279    
    952.0671    
    907.1120    
    917.2187    
    862.3497    
    894.9231    
    935.0566    
    892.6315    
    885.2403    
    820.5001    
    803.1855    
    965.6519    
    925.6649    
    923.2643    
    858.4094    
    870.9911    
    851.1359    
    951.2314    
    901.2784    
    971.5030    
    959.0698    
    941.6284    
   1047.2067    
   1014.6097    
   1009.6878    
   1082.8053    
   1017.4318    
   1030.1145    
   1103.3114    
   1080.7012    
   1151.5465    
   1090.9968    
   1121.4063    
   1116.4607    
   1121.6169    
   1096.4611    
   1202.8550    
   1139.6306    
   1230.9924    
   1276.8843    
   1215.9586    
   1200.8390    
   1307.7834    
   1282.3940    
   1305.4354    
   1387.3131    
   1236.9083    
   1397.7690    
   1282.9174    
   1257.5616    
   1331.5811    
   1352.1277    
   1362.4540    
   1298.7286    
   1237.7406    
   1344.8740    
   1398.7085    
   1368.0898    
   1432.2417    
   1386.2134    
   1404.2466    
   1548.3667    
   1558.7941    
   1631.3258    
   1696.3254    
   1699.0331    
   1743.3881    
   1850.6151    
   1947.8829    
   2016.5518    
   1995.5389    
   2032.6165    
   2202.6179    
   2272.1543    
   2349.9890    
   2368.9038    
   2395.9028    
   2563.5791    
   2658.8967    
   2675.3728    
   2784.9417    
   2853.7603    
   2986.4626    
   3257.2163    
   3361.5283    
   3597.3716    
   3778.2649    
   3896.9045    
   4245.0557    
   4515.4360    
   4783.4331    
   5178.2607    
   5536.8916    
   5873.2085    
   6460.7319    
   6866.6660    
   7394.4521    
   7826.8838    
   8229.2139    
   8809.2461    
   9239.4502    
   9410.3906    
   9694.6035    
   9795.4893    
   9822.8105    
   9683.3203    
   9491.1299    
   9300.7549    
   9112.1650    
   8563.8740    
   8180.1963    
   7828.3477    
   7399.5688    
   6989.8711    
   6644.7549    
   6246.7358    
   5907.6211    
   5646.7334    
   5242.9678    
   5097.9136    
   4825.9824    
   4614.6826    
   4500.9482    
   4319.6382    
   4266.5215    
   4210.5967    
   4002.7170    
   4040.7419    
   4058.3767    
   4038.0320    
   4052.7339    
   4070.3762    
   4015.0029    
   4173.1938    
   4270.5205    
   4457.5361    
   4610.2354    
   4673.5088    
   4937.4561    
   5229.6689    
   5385.2295    
   5843.0640    
   6226.7544    
   6568.1846    
   7173.0693    
   7754.5078    
   8396.6631    
   8992.6533    
   9541.4873    
  10343.8193    
  11258.6523    
  12099.0654    
  13017.0518    
  13731.7451    
  14204.9873    
  15009.1650    
  15120.2920    
  15110.2822    
  15145.8203    
  14438.9756    
  13803.4482    
  13146.0420    
  12226.9199    
  11180.7861    
  10329.4199    
   9409.4307    
   8738.6660    
   7950.8159    
   7182.3911    
   6723.7314    
   6019.2466    
   5541.9790    
   5189.7842    
   4776.9336    
   4408.0171    
   4034.0715    
   3715.7112    
   3584.1143    
   3436.3708    
   3088.2378    
   2960.6785    
   2724.2517    
   2601.6841    
   2517.7134    
   2345.3474    
   2291.8528    
   2153.2783    
   1941.8696    
   1918.3199    
   1960.4972    
   1777.1674    
   1756.4108    
   1662.9187    
   1660.4338    
   1554.4880    
   1487.6262    
   1469.7366    
   1510.9854    
   1377.6697    
   1352.2202    
   1431.6550    
   1306.5100    
   1332.1122    
   1260.8998    
   1243.2129    
   1273.8212    
   1240.8838    
   1202.9250    
   1192.8956    
   1086.8621    
   1071.8441    
   1193.2026    
   1004.1626    
   1092.3162    
    974.2761    
    996.9536    
    954.4459    
    972.0825    
    949.6418    
   1007.4033    
    934.8391    
    992.5555    
   1063.0250    
    952.6712    
    962.7894    
   1040.6902    
    970.5103    
   1038.3845    
   1091.3555    
   1078.8634    
   1167.3325    
   1053.8922    
   1175.1283    
   1228.4569    
   1198.1301    
   1215.9828    
   1274.5052    
   1233.9559    
   1236.5994    
   1264.6461    
   1216.4993    
   1269.9375    
   1270.0436    
   1178.8053    
   1219.4580    
   1146.1334    
   1174.0569    
   1222.3025    
   1100.9972    
   1219.9720    
   1253.0822    
   1149.2815    
   1283.8077    
   1114.1361    
   1245.8793    
   1347.8337    
   1319.8735    
   1332.7266    
   1399.2644    
   1371.2355    
   1473.8293    
   1538.2533    
   1592.5403    
   1634.0286    
   1600.4973    
   1634.2341    
   1766.8218    
   1842.6481    
   1908.2632    
   1918.8679    
   1897.9740    
   2003.2789    
   2130.3557    
   2133.1116    
   2231.6506    
   2199.7803    
   2210.5371    
   2314.8174    
   2333.6748    
   2232.1738    
   2218.9485    
   2128.6345    
   2081.0354    
   2139.4626    
   1983.5465    
   1975.7479    
   1881.2861    
   1818.5873    
   1836.9857    
   1693.7738    
   1696.4718    
   1660.2513    
   1497.7130    
   1500.3862    
   1474.7917    
   1405.6741    
   1375.0858    
   1377.7429    
   1331.8916    
   1331.9928    
   1360.1676    
   1304.1711    
   1408.9556    
   1355.3749    
   1322.3195    
   1470.8020    
   1460.6357    
   1458.1731    
   1460.8409    
   1478.9165    
   1540.7609    
   1494.5437    
   1540.9733    
   1520.4778    
   1484.5800    
   1507.8204    
   1574.9130    
   1585.3423    
   1502.9807    
   1446.5905    
   1415.9426    
   1508.4427    
   1449.4683    
   1421.3837    
   1477.9127    
   1452.3480    
   1378.2004    
   1493.6373    
   1460.3530    
   1483.5616    
   1496.5143    
   1409.4100    
   1501.8683    
   1543.1544    
   1633.6444    
   1592.3805    
   1517.7192    
   1605.5034    
   1683.2908    
   1818.7594    
   1621.3256    
   1600.7456    
   1816.4629    
   1782.6439    
   1889.9276    
   1900.5240    
   1843.0138    
   1953.2512    
   2140.9060    
   2101.2395    
   2218.2261    
   2255.6597    
   2175.8499    
   2309.3235    
   2371.0740    
   2408.7942    
   2473.5518    
   2619.8782    
   2671.6863    
   2824.9500    
   2849.7795    
   3009.9519    
   3065.5449    
   3124.0811    
   3311.7520    
   3413.3691    
   3498.4558    
   3663.8821    
   3652.5452    
   3897.2744    
   3984.4302    
   4092.4185    
   4248.0723    
   4313.0996    
   4419.8936    
   4614.0771    
   4659.2349    
   4737.6729    
   5038.8740    
   4993.0669    
   5042.1470    
   5282.7266    
   5270.4287    
   5404.2563    
   5457.4751    
   5460.7036    
   5473.3276    
   5611.6631    
   5678.0732    
   5656.0503    
   5533.3140    
   5738.5698    
   5786.3154    
   5741.9521    
   5878.9482    
   5808.8999    
   5764.4868    
   5780.4800    
   5850.6406    
   5927.4424    
   5978.8452    
   5911.6465    
   6027.2607    
   6062.7915    
   5979.2573    
   6202.0923    
   6218.4365    
   6156.9121    
   6228.3911    
   6231.7461    
   6073.2007    
   6070.0781    
   5973.6753    
   5877.7295    
   5906.5986    
   5750.5820    
   5598.9155    
   5435.8818    
   5206.0811    
   5221.6372    
   5006.4907    
   4839.0713    
   4718.2104    
   4556.1509    
   4410.2275    
   4250.6235    
   4118.6025    
   4063.1748    
   3914.9795    
   3741.9995    
   3650.3982    
   3519.3972    
   3474.0991    
   3451.5420    
   3260.0391    
   3212.5220    
   3193.0500    
   3115.0461    
   2998.5508    
   2987.5850    
   2869.0769    
   2921.5044    
   2905.0703    
   2850.1460    
   2866.7405    
   2866.8486    
   2770.9326    
   2853.3093    
   2817.7207    
   2815.0793    
   2815.1816    
   2722.2424    
   2749.6660    
   2845.6853    
   2810.1099    
   2873.3799    
   2785.6504    
   2821.3909    
   2854.4424    
   2887.5520    
   2895.9182    
   2967.7483    
   3048.1545    
   3023.3013    
   3098.3665    
   3098.4714    
   3154.2859    
   3204.6563    
   3221.5469    
   3255.2593    
   3274.9941    
   3233.0540    
   3300.4688    
   3227.6575    
   3233.3625    
   3289.5452    
   3253.1780    
   3222.4768    
   3261.7920    
   3133.3259    
   3150.1526    
   3122.3904    
   3066.8782    
   3119.8127    
   3061.5334    
   3028.3528    
   3042.3215    
   2956.6279    
   2953.9712    
   2896.1692    
   2888.0149    
   2888.1172    
   2849.7312    
   2863.5740    
   2860.9280    
   2756.8589    
   2735.0999    
   2653.4299    
   2626.3491    
   2542.4133    
   2547.9248    
   2426.6255    
   2450.9495    
   2375.7903    
   2343.7222    
   2346.5061    
   2245.0627    
   2173.3237    
   2231.9458    
   2165.5623    
   2107.3406    
   2073.0566    
   1917.8340    
   1936.3020    
   1952.1626    
   1928.6367    
   1978.6575    
   1886.9043    
   1889.6322    
   1944.8047    
   1965.9272    
   1945.0122    
   2018.7758    
   1911.1102    
   1937.4453    
   2000.6443    
   2056.1221    
   2167.4282    
   2130.3958    
   2122.5508    
   2223.5745    
   2341.1667    
   2505.2930    
   2586.5554    
   2619.2139    
   2763.7346    
   3122.5249    
   3248.2925    
   3360.7595    
   3733.3005    
   4022.4175    
   4324.6045    
   4652.4053    
   5105.0635    
   5577.5571    
   6016.3574    
   6649.7935    
   7004.5469    
   7290.1987    
   7621.6782    
   7972.8623    
   7994.2275    
   8150.9302    
   7920.1177    
   7712.8887    
   7290.9248    
   6747.2349    
   6380.8008    
   5988.7954    
   5481.8628    
   4981.2734    
   4645.3599    
   4385.9600    
   4118.1606    
   3810.6309    
   3661.5178    
   3533.3806    
   3358.1213    
   3162.0527    
   3218.0085    
   3095.4377    
   3048.3430    
   2926.7986    
   2825.1724    
   2852.7202    
   2759.6658    
   2661.6013    
   2542.3682    
   2553.2878    
   2372.9255    
   2434.7971    
   2279.4971    
   2141.2810    
   2165.2573    
   2067.4021    
   1993.6913    
   1956.9884    
   1902.0083    
   1828.8978    
   1706.7056    
   1680.8856    
   1670.6284    
   1608.6786    
   1572.6750    
   1557.3231    
   1388.1940    
   1424.0763    
   1542.1890    
   1465.2535    
   1429.5039    
   1432.1667    
   1360.7482    
   1383.8137    
   1338.0192    
   1233.9712    
   1312.7750    
   1274.7611    
   1249.4900    
   1369.1254    
   1242.0917    
   1305.6635    
   1326.1182    
   1204.4174    
   1262.7926    
   1339.1598    
   1214.8479    
   1321.5464    
   1215.0544    
   1268.3855    
   1314.2229    
   1283.8270    
   1263.6208    
   1375.6759    
   1286.6753    
   1426.9755    
   1468.0475    
   1419.5105    
   1519.5808    
   1529.9685    
   1517.2208    
   1527.6049    
   1664.4169    
   1630.9003    
   1693.1117    
   1693.2136    
   1776.4292    
   1909.6991    
   1901.9463    
   1946.6161    
   1978.2389    
   2004.6461    
   2105.0215    
   2155.4414    
   2176.7727    
   2283.3435    
   2246.1189    
   2299.5688    
   2471.3381    
   2555.1208    
   2468.8503    
   2466.2600    
   2431.3845    
   2498.8093    
   2488.1257    
   2386.0427    
   2359.3389    
   2311.2852    
   2202.1226    
   2170.3562    
   2054.0361    
   2017.2390    
   1998.9154    
   1909.7612    
   1883.6849    
   1789.8340    
   1766.5164    
   1771.8221    
   1626.7650    
   1523.8184    
   1485.4122    
   1575.4855    
   1483.0564    
   1357.8931    
   1289.3053    
   1264.0260    
   1302.2142    
   1249.0199    
   1233.9202    
   1145.5704    
   1155.7620    
   1191.2195    
   1130.7500    
   1118.2601    
   1133.4778    
   1118.4669    
   1121.0876    
   1126.2286    
   1023.3091    
   1141.5514    
   1073.7015    
    948.5659    
   1053.8176    
   1063.9641    
   1028.9395    
   1026.5353    
    944.0916    
   1071.9150    
   1061.9708    
   1054.5425    
   1044.6082    
    984.5905    
    997.2034    
   1062.4896    
   1045.0242    
   1040.1124    
   1135.7537    
   1118.2233    
   1118.3273    
   1252.3207    
   1277.7872    
   1300.7455    
   1359.3712    
   1397.7330    
   1474.5759    
   1549.1329    
   1541.5215    
   1680.9548    
   1611.2728    
   1769.3855    
   1933.9958    
   1900.0425    
   2034.0773    
   2192.8977    
   2214.2581    
   2390.5923    
   2482.0901    
   2592.9543    
   2799.9980    
   2918.1335    
   3114.6553    
   3389.0527    
   3707.2830    
   3992.8330    
   4255.9927    
   4442.2979    
   4914.0654    
   5152.6689    
   5363.0273    
   5638.5249    
   5831.7617    
   5822.3232    
   5898.8896    
   5914.9570    
   5724.3013    
   5632.8457    
   5199.7979    
   5104.5532    
   4679.5977    
   4461.5703    
   4213.5605    
   3925.1184    
   3686.4568    
   3510.0308    
   3259.4097    
   3006.3333    
   2959.4924    
   2628.5786    
   2539.3408    
   2525.9436    
   2421.0415    
   2268.6511    
   2170.3818    
   2011.9810    
   2099.1101    
   2041.1544    
   1959.7312    
   1967.7062    
   1873.5085    
   1884.0686    
   1973.2665    
   1931.3940    
   1960.3424    
   1928.9763    
   1931.7007    
   2013.2120    
   1984.3929    
   1934.6315    
   1960.9644    
   1942.7063    
   1945.4341    
   2013.8369    
   1890.6423    
   1998.2592    
   1987.8472    
   1885.7191    
   1935.5619    
   1914.7023    
   1831.1906    
   1854.7742    
   1755.9181    
   1753.4258    
   1789.9285    
   1725.0815    
   1722.5929    
   1722.6962    
   1634.8163    
   1686.6270    
   1684.1379    
   1627.3740    
   1632.6420    
   1552.8619    
   1601.8868    
   1702.7769    
   1638.2147    
   1537.8529    
   1571.3889    
   1504.6831    
   1540.7361    
   1561.4104    
   1510.1261    
   1543.6172    
   1482.1207    
   1443.8251    
   1490.0162    
   1469.6204    
   1403.2502    
   1349.8259    
   1365.2094    
   1357.6735    
   1398.5619    
   1334.9725    
   1309.6576    
   1271.6907    
   1276.8651    
   1371.0284    
   1378.7777    
   1399.2837    
   1424.9177    
   1340.8829    
   1363.8965    
   1343.6367    
   1410.0074    
   1315.8722    
   1255.0803    
   1255.1851    
   1280.6375    
   1298.5032    
   1270.6984    
   1197.4091    
   1225.3143    
   1200.1370    
   1243.2371    
   1137.2830    
   1238.3815    
   1165.2133    
   1077.2410    
   1218.4542    
   1228.6764    
   1155.5382    
   1178.3433    
   1213.8074    
   1224.0233    
   1325.5527    
   1183.7993    
   1224.3346    
   1264.9476    
   1186.6361    
   1262.6238    
   1336.3489    
   1293.2566    
   1336.5516    
   1298.5416    
   1298.6403    
   1382.6899    
   1303.9227    
   1342.1534    
   1411.0632    
   1327.1029    
   1243.4924    
   1439.4766    
   1398.7150    
   1439.6779    
   1439.7822    
   1475.6997    
   1501.4272    
   1555.4479    
   1583.8566    
   1697.5609    
   1589.2131    
   1684.8284    
   1898.2312    
   1848.7056    
   1958.6686    
   1953.5211    
   1998.2539    
   2037.8135    
   2077.4563    
   2154.2163    
   2263.1995    
   2186.2312    
   2215.5352    
   2292.8174    
   2234.3413    
   2271.6987    
   2234.5422    
   2115.3501    
   2269.3472    
   2197.6660    
   2078.6953    
   2126.3435    
   1989.3988    
   1960.6256    
   2052.7373    
   1871.8458    
   1874.5598    
   1827.7108    
   1685.0162    
   1757.6930    
   1630.9691    
   1618.1769    
   1559.0547    
   1479.6167    
   1349.5385    
   1433.7767    
   1398.1423    
   1273.6600    
   1256.0283    
   1258.6671    
   1296.7990    
   1175.4630    
   1022.2836    
   1049.9408    
    974.9804    
    892.8398    
   1027.7026    
    903.0009    
    885.6931    
    878.3408    
    779.2750    
    774.4313    
    814.1302    
    814.2302    
    819.2897    
    747.6629    
    760.1157    
    854.3233    
    842.0223    
    787.6236    
    819.9099    
    713.7432    
    785.4515    
    835.0889    
    716.5159    
    825.3810    
    825.4873    
    729.1561    
    793.4955    
    830.7510    
    788.7521    
    788.8507    
    744.4711    
    712.5119    
    774.3253    
    702.8641    
    715.2893    
    646.4876    
    631.8576    
    705.7335    
    693.5205    
    688.7025    
    671.5815    
    666.7686    
    627.5682    
    696.5016    
    686.7559    
    694.2411    
    723.9114    
    655.0939    
    771.0283    
    706.9744    
    613.6710    
    682.5542    
    648.2369    
    699.9877    
    744.4724    
    717.4451    
    690.4529    
    705.3319    
    688.1993    
    727.7197    
    700.7137    
    705.7372    
    693.5291    
    617.4585    
    686.3522    
    738.2063    
    745.7119    
    706.3589    
    785.4453    
    706.5603    
    682.0438    
    706.7704    
    741.3895    
    768.6585    
    675.0832    
    724.4329    
    835.7922    
    695.0699    
    751.8770    
    764.3312    
    697.8438    
    791.7324    
    821.5417    
    749.9243    
    769.7872    
    693.4310    
    691.0753    
    849.3214    
    765.2601    
    740.6746    
    775.3458    
    708.8259    
    718.7813    
    815.2352    
    736.2499    
    812.9690    
    731.5262    
    778.5362    
    734.1942    
    867.9227    
    783.7877    
    863.1680    
    811.2129    
    808.8420    
    950.5467    
    880.9619    
    893.4924    
    948.3544    
    871.3359    
    976.0023    
    958.6443    
    906.4426    
   1036.3079    
    889.2411    
    839.6943    
    969.1322    
    926.8629    
    822.6634    
    810.3831    
    778.3278    
    743.8583    
    800.7857    
    721.8681    
    724.4353    
    643.3627    
    626.2877    
    707.4978    
    611.7787    
    633.9500    
    665.9795    
    619.4417    
    582.7995    
    590.2475    
    514.5861    
    597.7921    
    517.2267    
    461.3028    
    502.8059    
    549.2832    
    512.7634    
    529.9470    
    505.6518    
    478.9528    
    623.2278    
    527.9197    
    584.2379    
    503.7303    
    467.2991    
    438.2202    
    489.4163    
    370.5060    
    484.7526    
    511.6650    
    402.3223    
    489.9268    
    531.4853    
    443.9052    
    431.8585    
    483.0384    
    583.2258    
    583.3284    
    497.9545    
    595.7740    
    481.1117    
    376.7909    
    559.3871    
    615.7862    
    603.6313    
    687.1969    
    731.6271    
    694.7867    
    667.8421    
    628.6581    
    565.0954    
    499.2909    
    511.5850    
    692.9402    
    695.5087    
    575.3901    
    656.3763    
    595.1706    
    478.0898    
    534.2600    
    475.8672    
    524.7034    
    590.7914    
    437.2620    
    525.0090    
    588.6528    
    544.7487    
    632.9651    
    469.3855    
    411.1741    
    586.7135    
    511.0974    
    506.3264    
    467.4674    
    448.1126    
    577.4396    
    673.1666    
    553.2042    
    641.4528    
    543.6423    
    431.7235    
    448.8307    
    487.8592    
    607.6396    
    617.5464    
    625.0023    
    659.4561    
    644.8241    
    537.2361    
    547.1071    
    513.0516    
    498.5304    
    557.1865    
    552.3997    
    513.4543    
    516.0012    
    591.8373    
    555.2564    
    565.1337    
    545.6873    
    565.3386    
    548.3382    
    455.8548    
    531.4557    
    526.6787    
    419.7221    
    595.3066    
    526.9855    
    514.8976    
    561.3757    
    652.0929    
    546.9196    
    566.5709    
    449.6913    
    522.8293    
    593.7833    
    508.4008    
    518.2540    
    491.5567    
    430.8748    
    503.9395    
    418.9400    
    363.3112    
    404.5931    
    279.0090    
    303.2260    
    383.0924    
    409.8496    
    419.6546    
    397.9383    
    262.7702    
    376.3432    
    429.7772    
    522.3328    
    500.5031    
    466.5312    
    442.3319    
    532.5046    
    348.0218    
    432.9206    
    469.4740    
    515.8460    
    564.7645    
    675.1304    
    670.3167    
    614.0014    
    552.9562    
    484.7957    
    477.5943    
    487.4262    
    492.4006    
    526.6220    
    482.8737    
    605.0255    
    617.3743    
    534.3463    
    493.0169    
    415.3612    
    379.1126    
    405.8608    
    388.9969    
    442.4644    
    457.1442    
    496.1752    
    452.4879    
    520.7386    
    440.5465    
    533.1407    
    448.0414    
    406.8874    
    545.6503    
    518.9167    
    475.1887    
    489.8936    
    407.3994    
    446.3279    
    456.1458    
    458.6818    
    436.9258    
    490.5110    
    466.2805    
    391.1499    
    451.9035    
    338.1405    
    321.3429    
    266.0009    
    266.0982    
    449.9872    
    345.9027    
    266.4120    
    348.5226    
    336.5400    
    418.9449    
    385.1187    
    421.5780    
    504.3224    
    414.4985    
    468.0216    
    509.5016    
    451.2209    
    417.3393    
    412.5869    
    376.3554    
    347.4380    
    434.7360    
    333.1479    
    434.9336    
    507.9860    
    398.7661    
    435.2476    
    449.9135    
    435.4451    
    491.4521    
    302.5984    
    295.4716    
    370.4302    
    264.3600    
    307.8308    
    300.6998    
    228.6065    
    315.3753    
    296.1831    
    209.7017    
    359.1569    
    354.4292    
    388.3997    
    453.9797    
    412.8307    
    354.8385    
    393.6556    
    297.1090    
    330.9804    
    306.9556    
    319.1242    
    382.0573    
    384.5815    
    358.0693    
    542.7544    
    418.8113    
    472.3262    
    528.4249    
    465.2375    
    428.9199    
    540.9329    
    436.4032    
    477.8033    
    354.2605    
    260.3221    
    388.3372    
    395.7001    
    386.1148    
    328.2042    
    275.2761    
    447.0337    
    425.2989    
    430.2481    
    406.1071    
    449.8779    
    418.4326    
    474.3738    
    428.3350    
    387.2456    
    404.3015    
    334.2599    
    392.3898    
    416.7228    
    402.2892    
    487.3562    
    492.3255    
    320.3902    
    378.4826    
    402.8012    
    405.3231    
    466.0840    
    354.7126    
    432.2975    
    429.9795    
    357.4350    
    367.2060    
    459.4125    
    331.1769    
    396.5547    
    501.0557    
    430.6896    
    416.2448    
    295.5143    
    259.5024    
    372.9640    
    358.5642    
    315.2082    
    373.2734    
    404.8429    
    524.0011    
    494.8833    
    536.4002    
    585.3255    
    558.5553    
    505.0289    
    595.4154    
    558.8651    
    607.8463    
    632.4324    
    603.1588    
    471.5926    
    608.2582    
    736.0022    
    723.7982    
    630.6028    
    694.4934    
    788.1904    
    790.7660    
    667.7900    
    662.9855    
    606.7315    
    555.5167    
    584.9288    
    570.3755    
    560.7092    
    575.4581    
    600.0071    
    582.9997    
    624.6840    
    588.0854    
    602.8594    
    515.0959    
    434.9961    
    495.8295    
    505.6617    
    591.1474    
    539.9821    
    450.0632    
    501.2022    
    591.5566    
    481.9539    
    426.2124    
    443.2904    
    462.8174    
    496.9541    
    575.0690    
    562.9608    
    565.5004    
    550.9611    
    546.1894    
    534.0973    
    651.5386    
    614.9000    
    544.1591    
    446.9453    
    568.7590    
    598.1866    
    549.4460    
    588.6120    
    547.2057    
    476.7043    
    474.3799    
    589.0249    
    576.9083    
    542.8419    
    574.6688    
    660.4348    
    577.3173    
    540.8096    
    562.8707    
    565.4177    
    563.0768    
    621.8386    
    629.2873    
    626.9453    
    592.7954    
    561.1449    
    597.8873    
    678.8364    
    625.0047    
    568.8751    
    637.4538    
    578.8542    
    647.4583    
    566.8425    
    481.6933    
    542.6581    
    477.0350    
    464.9893    
    489.3954    
    363.4494    
    402.2549    
    412.0416    
    288.9807    
    339.7081    
    429.3136    
    422.1431    
    368.9972    
    325.6407    
    328.1615    
    480.7969    
    425.0745    
    422.7561    
    410.7465    
    362.4666    
    372.2314    
    374.7544    
    336.2166    
    408.8315    
    382.3118    
    394.5114    
    452.7789    
    486.8851    
    419.0283    
    428.8292    
    378.0936    
    313.0182    
    409.7504    
    419.5443    
    347.0972    
    311.0162    
    243.7532    
    337.7449    
    371.6604    
    244.0655    
    311.5234    
    280.3249    
    266.0009    
    273.3119    
    244.5710    
    314.4473    
    242.3802    
    158.6033    
    208.9848    
    199.5061    
    257.1993    
    264.5083    
    242.9889    
    271.9320    
    322.5981    
    284.1598    
    308.3427    
    347.0325    
    306.1389    
    236.5003    
    299.1169    
    374.0108    
    352.3668    
    369.3738    
    318.7997    
    328.5483    
    454.4377    
    401.2238    
    391.6493    
    280.7863    
    307.3663    
    435.5420    
    377.5493    
    312.4915    
    293.3240    
    300.6473    
    387.6299    
    308.0843    
    378.1572    
    421.8219    
    284.3132    
    267.5762    
    339.9279    
    262.9745    
    260.6747    
    236.7590    
    138.6847    
    273.0004    
    330.8974    
    316.5325    
    384.2193    
    372.2400    
    328.8961    
    384.5289    
    370.1257    
    360.5709    
    355.8416    
    233.1809    
    305.4064    
    298.2884    
    257.5021    
    303.3040    
    269.7224    
    188.2578    
    320.4756    
    255.6077    
    186.1664    
    330.4276    
    342.5860    
    239.2056    
    248.9181    
    253.8193    
    294.7955    
    268.4449    
    172.6272    
    247.0246    
    237.5219    
    168.1452    
    331.5516    
    276.2692    
    230.7302    
    317.3936    
    305.4502    
    267.0568    
    317.6985    
    245.6465    
    289.0087    
    390.4167    
    368.7685    
    243.6560    
    332.7720    
    332.8709    
    441.7773    
    444.3028    
    383.8780    
    427.5428    
    398.5971    
    333.4873    
    372.2021    
    259.0829    
    271.2043    
    312.2074    
    163.5226    
    249.8868    
    351.0902    
    331.8896    
    397.1963    
    175.9972    
    235.9926    
    332.2985    
    219.4086    
    121.4523    
    133.4840    
    116.8851    
    169.5361    
    241.5054    
    184.0873    
    217.7253    
    205.8482    
    198.7605    
    210.8409    
    170.2504    
    280.6572    
    261.5285    
     84.6421    
    146.7586    
    245.0291    
    254.7323    
    278.8690    
    187.8106    
    163.9885    
    243.1384    
    260.0521    
     83.1823    
    262.6523    
    207.5839    
    267.6651    
    267.7648    
    248.6544    
    239.1606    
    359.5895    
    272.9772    
    354.9716    
    359.8963    
    333.4592    
    287.8152    
    311.9892    
    225.5809    
    350.7494    
    341.2099    
    305.1687    
    252.3775    
    221.2971    
    307.8844    
    305.5770    
    272.0038    
    421.6626    
    448.4109    
    392.8257    
    407.4447    
    407.5489    
    289.4471    
    424.6907    
    354.7004    
    345.1480    
    364.5519    
    405.7396    
    374.4206    
    347.9656    
    379.4514    
    357.8273    
    374.8266    
    240.1204    
    197.0887    
    225.9390    
    192.5006    
    271.7470    
    180.7462    
    238.3370    
    353.9123    
    164.3165    
    104.7523    
    190.8208    
    181.3555    
    174.2873    
    169.6027    
     90.9687    
    212.8887    
    275.3722    
    186.7504    
    261.1624    
    225.2750    
    225.3745    
    307.1494    
    249.5708    
    268.8780    
    276.1876    
    281.1015    
    300.4366    
    262.0770    
    264.5850    
    336.8660    
    214.4114    
    279.3048    
    351.6436    
    366.2218    
    334.9678    
    344.7132    
    195.8691    
    253.4923    
    280.0193    
    323.4301    
    328.3458    
    261.1064    
    194.0921    
    294.9551    
    220.6344    
    168.0883    
    280.8349    
    242.5139    
    254.6181    
    221.1429    
    197.2947    
    262.1256    
    211.8696    
    142.6270    
    267.2356    
    248.1366    
    214.6711    
    233.9411    
    226.8569    
    298.9914    
    291.8769    
    229.5572    
    246.4485    
    201.0120    
    196.3298    
    263.5559    
    270.8600    
    196.6365    
    295.1025    
    172.9238    
    201.7250    
    220.9900    
    271.4696    
    194.8497    
    106.6156    
     68.6376    
    192.7648    
    183.3022    
    114.1733    
    197.8597    
    166.8741    
    143.0985    
    143.1964    
    169.5664    
    193.5866    
    193.6860    
     93.5435    
    241.7970    
    294.7322    
    220.4256    
    251.6992    
    266.2065    
    218.3357    
    307.2688    
    336.2654    
    276.2180    
    346.1079    
    305.2747    
    288.5386    
    298.2567    
    255.1214    
    272.0245    
    320.2158    
    279.4362    
    320.4232    
    229.2451    
    241.3353    
    272.6414    
    184.0667    
    205.7027    
    212.9918    
    189.1581    
    215.5847    
    170.2407    
     63.0972    
    203.9211    
    251.9520    
    170.6451    
    194.6521    
    180.4119    
    168.5604    
    223.6859    
    195.0630    
    152.1467    
    212.0152    
    231.2852    
    238.5775    
    245.8701    
    198.0670    
    250.8787    
    191.0887    
    239.0877    
    357.0122    
    265.6809    
    306.6313    
    376.6184    
    179.7493    
    208.5542    
    299.8297    
    290.3106    
    237.6033    
    237.7126    
    156.4703    
    321.9845    
    278.8081    
    137.6851    
    250.2053    
    130.7373    
    154.6943    
    240.9186    
    229.0375    
    162.1635    
    140.7809    
    100.3711    
    133.8308    
    263.1169    
    174.6166    
    217.7763    
    124.6978    
    225.1645    
    208.5081    
    184.6834    
    220.6781    
    275.9418    
    120.5429    
    189.8755    
    199.5486    
    204.4256    
    163.8941    
    130.5959    
     97.3382    
    171.3643    
    221.7013    
    205.0369    
    162.1162    
    166.9976    
    136.0715    
    198.2707    
    193.5927    
    138.7645    
    169.8909    
     79.4324    
    158.1581    
    101.0467    
    105.9133    
    120.3026    
    113.2557    
    110.9802    
    182.6529    
    137.3938    
    199.5970    
    214.0522    
    135.3161    
    252.5951    
    271.8918    
    166.6417    
    231.3313    
    289.0075    
    205.1933    
    303.6355    
    284.5080    
    253.4072    
    332.8135    
    313.6596    
    325.7920    
    328.3018    
    323.5874    
    294.8296    
    302.1462    
    223.0692    
    328.8083    
    242.4409    
    209.0079    
    290.6358    
    159.0305    
    180.6178    
    214.2051    
    240.6549    
    219.1913    
    173.8610    
    178.7440    
    147.8047    
    140.7543    
    152.7854    
    234.1719    
    136.2914    
     98.2864    
    153.1870    
    143.7502    
    170.1027    
    186.9236    
    103.5516    
    199.0854    
    153.7966    
    118.1421    
    208.9581    
    170.8122    
    151.8225    
    276.3690    
    147.2496    
    144.9726    
    223.9299    
    149.9429    
    185.8634    
    243.3984    
    195.6218    
    262.7860    
    167.1586    
    100.5195    
    172.1404    
    234.4233    
    169.9538    
    141.4252    
     98.6459    
    120.1758    
    153.6539    
    141.8242    
    225.5578    
    201.7335    
    118.2979    
    242.6305    
    173.3585    
    190.1785    
    202.2392    
    209.5162    
    183.3168    
    240.8457    
    238.5508    
    209.9201    
    262.7277    
    138.4841    
    282.1241    
    284.6310    
    220.0021    
    244.0546    
    179.5616    
    165.3284    
    270.7359    
    189.4223    
     65.6311    
    156.1956    
     99.1176    
     96.8364    
    125.5084    
     94.6652    
    161.4712    
     85.3619    
      0.0001    
     71.2987    
     21.5797    
     38.2721    
     52.6096    
      0.0001    
      0.0001    
      7.8708    
     57.7666    
     53.1139    
     36.6136    
     39.0889    
    141.4276    
    103.4310    
    120.1927    
    208.5918    
    118.0189    
    118.1168    
    199.3327    
    204.2243    
    237.8256    
    211.5979    
    132.9184    
    204.6221    
    183.2174    
    212.0079    
    226.4587    
    207.4238    
    217.0943    
    253.1118    
    179.0540    
    186.3190    
    200.7562    
    150.7218    
    157.9790    
    184.3344    
     84.3673    
    184.5356    
    225.2908    
     68.0425    
    175.2887    
    161.0743    
    134.9463    
    168.4321    
     61.4269    
    182.9642    
    247.6541    
    166.4589    
    204.7773    
    204.8768    
    150.0675    
    233.7905    
    241.0777    
    176.6148    
    205.3825    
    172.0460    
    215.1552    
    205.6881    
    172.3499    
    177.2240    
    191.6558    
    103.5541    
    156.0492    
    113.2714    
    118.1312    
    151.5854    
    101.6814    
     40.0355    
    156.6614    
    144.8445    
     28.4863    
    121.2228    
     52.4062    
     21.6806    
    114.3882    
     64.5737    
     86.0491    
    107.5558    
     76.7533    
    150.6251    
    134.0495    
     98.4420    
    179.5603    
    129.5846    
    158.2827    
    261.2074    
    244.5309    
    118.0854    
    182.5620    
     96.8810    
    168.4405    
    201.9785    
    182.9594    
    214.1311    
    128.3232    
    114.1370    
    176.2115    
    207.3643    
    159.7081    
    171.7433    
    121.7857    
    155.2447    
    176.8183    
    103.0557    
    148.3997    
     96.1319    
     77.2221    
    120.1226    
    103.5649    
    113.1857    
     58.6335    
     84.8531    
     58.8430    
    118.3486    
     68.5364    
    106.6591    
     80.6087    
     61.7195    
    133.1408    
    135.6219    
     66.7753    
    116.7825    
     59.8520    
    114.6103    
    200.5416    
    171.9927    
    164.9374    
    169.8061    
    157.9899    
    220.1780    
    160.5733    
    105.9060    
    177.4747    
    156.1097    
     46.8402    
    192.1043    
    142.1192    
    166.0546    
    242.6293    
    118.6131    
    168.7420    
    216.6162    
    190.4281    
    180.9775    
    166.7688    
    126.3600    
    226.6881    
    169.4611    
    150.4787    
    148.2014    
    110.2076    
    157.9355    
    217.7350    
    191.5431    
    220.3261    
    163.1123    
     56.1847    
    175.2451    
    254.2388    
    218.4413    
    220.9378    
    158.9494    
    180.5209    
    230.8079    
    199.8238    
    226.2268    
    245.4715    
    207.3000    
    212.1850    
    248.1682    
    164.6385    
    207.7052    
    169.6088    
    176.8691    
    167.4212    
    157.9887    
    205.8240    
    217.8721    
    134.4737    
    110.7774    
    156.1109    
    160.9835    
    144.3983    
     99.2973    
     97.0185    
    154.2382    
    121.0042    
    128.2398    
    204.6536    
     85.6464    
    119.0261    
    150.0832    
    140.6491    
    169.3545    
    186.1566    
    152.8664    
    212.6351    
    234.2569    
    236.7518    
    253.6126    
    251.3139    
    196.4207    
    277.8770    
    273.1841    
    239.7571    
    244.6366    
    220.8201    
    206.5808    
    273.6904    
    161.4422    
    240.3597    
    183.1084    
    156.9784    
    211.9642    
    164.3347    
    159.6645    
    178.8433    
     52.8912    
     45.8800    
    205.4128    
    100.6703    
     88.8933    
     91.3751    
     51.1255    
     72.5818    
    122.5792    
     44.3230    
    179.9637    
    103.8569    
     23.3163    
    115.9505    
     70.9168    
     87.6381    
    106.7400    
      0.0001    
     42.8673    
    128.4513    
     26.4932    
    140.5548    
    121.6202    
     83.6994    
    102.8011    
    164.7910    
     53.1560    
    100.7294    
     53.3619    
     86.6796    
    117.6784    
    122.5285    
    120.2542    
    134.6333    
     84.8097    
    151.5056    
    144.4563    
    116.0073    
    178.0294    
    151.9060    
    142.4879    
    228.4814    
    168.8969    
    209.5671    
    157.1768    
    171.5883    
    176.4501    
    159.8690    
    164.7353    
    169.6051    
    236.5744    
    165.0367    
    224.8197    
    236.8757    
    227.4105    
    301.7709    
    182.2350    
    203.8217    
    270.9001    
    285.3823    
    230.4145    
    149.3721    
    206.7166    
    264.2188    
    233.2076    
    185.5399    
    240.5820    
    123.8064    
    131.0418    
    233.7153    
    147.9123    
    155.1503    
    121.9354    
     38.9698    
    117.3778    
    122.2362    
     84.3190    
     89.1767    
      0.0001    
     41.9434    
     87.1016    
      4.2826    
     73.0697    
     68.4195    
     54.2995    
     75.7423    
    151.9072    
    104.4398    
    130.6865    
    114.1467    
    133.2737    
    121.4801    
    107.3217    
    114.5463    
    152.7237    
    102.8711    
     91.0977    
    169.7056    
    172.1828    
    157.9947    
    189.0830    
     82.1082    
    148.7686    
    165.5426    
    141.8339    
    111.0079    
    106.3610    
    101.7115    
    142.2365    
    106.6688    
    130.5379    
    147.3004    
     95.0934    
    104.6944    
    154.7511    
    104.8959    
    181.1689    
    109.8515    
     88.5798    
    169.5495    
    193.4933    
    150.6964    
    119.8642    
     96.2067    
    155.7601    
    136.8196    
    153.5862    
    137.0179    
    208.6319    
    101.5655    
    213.6070    
    199.3849    
    147.0452    
    180.5076    
     75.9592    
     52.3592    
     80.9101    
     26.5160    
     57.4042    
     66.9789    
      7.9008    
     24.5555    
    100.5086    
     12.9311    
     36.6894    
      0.0001    
      0.0001    
    112.8923    
     20.5317    
      0.0001    
     37.3027    
      0.0001    
      0.0001    
      2.1250    
     14.0459    
     21.2420    
     66.3309    
      0.0001    
     80.7618    
     92.7318    
    114.2095    
    135.7077    
     71.6842    
     69.4109    
    121.7482    
     81.4730    
    169.5434    
    122.0465    
     41.4886    
    129.3852    
    177.0956    
    181.9697    
    258.5040    
    182.1707    
    137.0239    
    211.0010    
    158.6493    
    192.1116    
    239.9794    
    135.1505    
    130.4980    
    171.0616    
    166.3960    
    118.9174    
    138.0332    
    107.2372    
    135.8588    
    102.6901    
    152.7188    
    152.8168    
    105.3714    
     98.3443    
    148.3634    
    160.3688    
    134.2937    
    170.1027    
     56.1642    
    175.0695    
    101.4268    
    120.5320    
    151.5540    
    144.5156    
     78.1079    
    204.2886    
    109.1635    
     80.7763    
    166.4480    
    109.4653    
    149.9828    
    181.0515    
    133.5311    
    119.3763    
     81.4850    
     50.7813    
    124.4297    
     93.6544    
     96.1355    
     48.8149    
      0.0001    
     60.8610    
    129.7936    
     68.1762    
    122.8618    
     47.0592    
     25.8597    
    120.7941    
     92.3929    
     61.6750    
     54.6691    
     26.3694    
      5.1952    
    130.9016    
     31.4054    
    126.3504    
     76.6051    
     38.8038    
    117.1519    
    207.7306    
    203.0601    
    153.1265    
    153.2184    
    122.4125    
    117.7569    
    148.7698    
    148.8689    
     91.9455    
     63.6018    
     85.0279    
    113.6167    
    106.5879    
     75.8520    
    144.8179    
    102.1471    
     57.1996    
     50.1928    
      0.0001    
     55.1301    
      0.0001    
      0.0001    
     24.6733    
     22.4137    
      0.0001    
      8.4377    
      0.0001    
      6.2772    
      0.0001    
     18.2907    
     53.8794    
     75.3025    
     77.7717    
    146.7369    
    153.9829    
     82.8146    
    139.9129    
     78.2778    
     80.7522    
    137.8362    
    164.1059    
    147.5532    
     78.7804    
     71.7782    
    281.5045    
    193.2024    
     93.4193    
    129.1363    
     17.8497    
    157.8750    
    181.7940    
    108.1605    
    115.3891    
     51.4686    
     75.2591    
    151.3447    
    122.9198    
    101.6500    
    144.5095    
     44.9788    
    101.9504    
     83.0810    
    118.7713    
     57.2164    
     90.4947    
     71.6288    
    154.8370    
     59.9856    
     62.4625    
    124.2279    
    102.9676    
     62.7600    
    100.7921    
     44.0283    
     96.2525    
    153.3684    
     23.0423    
    122.6722    
    127.5162    
    151.3967    
    122.9681    
    104.0778    
      0.0001    
     75.8218    
    109.1261    
     42.8745    
     66.6489    
     43.0730    
     64.4857    
    100.1358    
     64.6881    
     88.4846    
     98.0716    
     29.4914    
     13.0512    
     53.3534    
     51.0798    
     67.7642    
     77.3342    
    101.1529    
    148.7613    
     30.3029    
     11.4968    
     47.0592    
    101.6572    
    132.6223    
    125.6038    
    116.1980    
    206.7312    
    159.1817    
    154.5297    
    171.2880    
    228.6089    
    121.5550    
    200.1815    
    121.7591    
    102.8663    
    217.1804    
    124.4333    
    224.5430    
    124.6350    
    115.2418    
    162.8787    
    191.5540    
    106.0496    
    172.7034    
     70.6951    
    111.0973    
    149.2160    
     28.3985    
     33.2355    
     35.6936    
      0.0001    
     26.4451    
     50.1928    
      0.0001    
     69.3350    
      0.0001    
      0.0001    
     36.5102    
     22.4209    
     29.6188    
     20.2602    
      0.0001    
      0.0001    
      0.0001    
      6.4993    
      0.0001    
      4.3379    
     23.3307    
      0.0001    
     42.4438    
     82.8013    
     35.5541    
     12.0314    
     57.0479    
    154.4209    
     76.1918    
    166.5170    
    202.3447    
    112.0618    
    157.3063    
    178.8179    
    209.9043    
     62.6889    
    100.7077    
     79.4686    
    153.1555    
    138.9930    
    184.2908    
    191.5407    
     87.0859    
    156.0359    
    151.3786    
    146.7320    
    211.1089    
    168.3376    
     94.8003    
     80.6871    
    230.5991    
    109.3373    
    126.0532    
     88.1976    
     57.5090    
    107.3712    
     74.2855    
    124.1832    
    126.6633    
     43.8189    
    105.5054    
    148.3404    
     27.5811    
    101.0564    
     53.7904    
      4.2682    
     87.1414    
     89.6120    
    118.1735    
    101.6669    
     42.5665    
    116.1039    
    132.8205    
     90.2222    
    133.0223    
    126.0061    
    104.7427    
    149.9647    
    145.3027    
    138.2822    
    202.6296    
    128.9805    
    150.4666    
    226.7767    
    243.5868    
    186.4559    
    174.6590    
     65.5745    
    287.0261    
    272.7667    
    206.0241    
    163.2587    
    113.4803    
     96.9727    
    225.5032    
    109.0380    
    135.2472    
    104.4953    
     12.3185    
     80.9969    
    107.1684    
     78.8298    
     62.3542    
     71.9300    
      0.0001    
      0.0001    
     67.4920    
     25.0387    
     48.7679    
      0.0001    
      0.0001    
    105.9084    
      0.0001    
     16.1964    
     42.2826    
      0.0001    
     40.1209    
     70.9746    
     49.7800    
     80.6485    
     99.7087    
     12.2788    
     83.3233    
    102.3740    
     83.5246    
     97.8352    
      0.0001    
     57.7811    
    107.6282    
     86.3951    
    103.0859    
     81.8587    
     65.3866    
    148.4868    
    186.6425    
     98.8473    
    120.2929    
    120.3943    
     75.4615    
    108.7386    
    132.5631    
    111.3133    
    123.2701    
    125.7488    
    170.9902    
    140.1982    
     76.2653    
    185.5787    
    128.6204    
     88.4171    
    183.4949    
    176.4598    
    131.4031    
    226.6881    
    143.4794    
    200.6701    
    250.8580    
    203.2529    
    239.1217    
    193.9272    
    134.5837    
    201.2727    
    208.5275    
    199.0903    
    196.8159    
    154.0894    
    142.3175    
    235.2541    
    147.2678    
    154.4910    
     81.0620    
     97.7375    
    154.8007    
    154.8999    
    152.6233    
     81.5634    
     39.0889    
      0.0001    
     96.0776    
     27.5787    
     41.8555    
     82.1685    
     34.9684    
     25.6217    
    125.1387    
    106.2632    
    115.8467    
     42.5641    
     14.3198    
    142.2631    
    111.5077    
     50.0592    
    142.5581    
     69.1808    
     85.8441    
    223.7770    
     64.7447    
    176.3435    
    150.2888    
    107.6789    
    200.4421    
    191.0256    
    188.7449    
    155.5496    
     93.9620    
     91.6958    
    160.6060    
    151.2008    
    137.0517    
    175.1737    
     61.4305    
    142.1035    
    215.9512    
    118.5732    
    104.4506    
    125.8913    
     88.0686    
    130.8412    
    107.2239    
    145.2834    
    252.5441    
    133.6145    
     91.0458    
    181.3410    
     98.3527    
    126.8976    
    100.9225    
     58.4107    
    129.5797    
    115.4422    
    115.5509    
     91.9455    
    125.2402    
    168.0810    
    189.5944    
    182.5499    
    137.5074    
    106.7665    
     78.4514    
    159.1769    
    152.1576    
    126.1426    
    107.2734    
    105.0045    
    107.4750    
     86.2552    
     83.9923    
     84.0912    
    114.9906    
     41.7268    
     91.4969    
    155.6391    
     49.1169    
    117.8656    
     65.8684    
    122.8111    
     96.8364    
     89.8339    
     99.4083    
    108.9873    
      0.0001    
     35.8511    
    114.0308    
    109.3904    
     76.3388    
    123.8196    
     59.9832    
    147.7503    
    200.1609    
    152.7043    
    190.8402    
    117.3077    
    117.4091    
    207.8070    
    129.4686    
    222.3094    
    212.8717    
    125.0312    
    165.4869    
    284.7722    
    179.9540    
    187.1951    
    187.2896    
    158.8683    
    230.3586    
    223.3157    
    230.5590    
    202.0791    
    173.6261    
    207.0429    
    211.9012    
    152.5483    
    262.1828    
    167.0024    
    178.9862    
    131.5904    
    200.5998    
    150.7787    
    191.2813    
    155.7298    
    155.8254    
    174.9412    
    141.7831    
    177.5219    
    127.7457    
    104.1514    
     97.1379    
    161.2873    
     78.4044    
     69.0507    
    194.8703    
     55.0676    
    218.8819    
    159.5169    
    176.2454    
    219.1913    
    166.9395    
    209.8655    
    221.8688    
    193.4060    
    217.3066    
    229.3277    
    167.5447    
    272.4771    
    229.6228    
    141.7323    
    208.3832    
    141.9330    
    123.0527    
    118.4187    
    151.7245    
    106.7713    
    159.0486    
     50.1976    
    152.1285    
    154.6084    
     78.8599    
    150.0614    
     36.5246    
     31.9116    
    110.0410    
    148.0901    
    119.7205    
     91.4052    
     56.0234    
     27.7963    
    136.7229    
     72.8770    
    134.5547    
    148.8931    
    111.0502    
    146.7212    
    104.1465    
    135.0575    
    154.1451    
    144.7526    
    168.5967    
    237.7187    
    123.7061    
    123.8076    
    226.1029    
    116.8972    
    178.7088    
    259.7918    
    212.2166    
    214.6978    
    110.2945    
    131.7257    
    167.4309    
    122.4439    
    139.1453    
    146.3632    
     51.7610    
    106.2596    
     99.2575    
    108.8304    
    116.0375    
    101.9263    
      2.8238    
    132.9341    
    102.2292    
     92.8572    
     50.4082    
     43.4183    
     62.4216    
    150.1425    
     72.0782    
     39.0997    
     69.9157    
     25.1433    
    129.3031    
     93.8631    
     27.8107    
     94.0669    
    106.0110    
     39.9080    
    151.2576    
    115.7815    
    165.7036    
    108.8762    
     92.4110    
    156.5017    
    113.9233    
    111.6501    
    137.8229    
    128.4404    
    100.1141    
    192.7491    
     81.3850    
     50.7621    
     95.7809    
     46.2421    
     74.6940    
    148.2195    
     51.2652    
     82.0901    
     42.0252    
     11.4632    
    103.6868    
    129.8492    
     80.2291    
    146.6546    
     47.3444    
    116.0363    
    170.6923    
     94.9281    
    113.9620    
    140.1426    
     47.9508    
    130.8593    
    149.9272    
    140.5439    
    211.9193    
    207.2648    
    121.8762    
    255.1153    
    200.4227    
    231.4758    
    238.7233    
    146.0923    
    177.0569    
    246.1763    
    184.3865    
    165.4809    
    172.7083    
    196.5759    
    241.9112    
    187.2678    
    201.6365    
    239.8337    
     99.8077    
    187.6664    
    244.9028    
    130.8980    
    268.9583    
    183.3156    
    152.5519    
    145.5288    
    129.0385    
    131.5046    
    176.6972    
     98.5445    
    155.5278    
    188.8770    
    127.2685    
    146.3354    
    136.9502    
     54.2418    
    153.7555    
    184.7270    
    151.5842    
    246.8131    
    139.9262    
     83.1979    
    197.1165    
    121.2724    
    171.1742    
    173.6564    
     90.7926    
    133.5226    
    207.2321    
    152.6934    
    193.1636    
    157.6427    
    148.2449    
    115.1717    
