  11100 13  1 ##LUAG9.SP PUC001 BMW  .000 # SI 060593 00.00  04        
  PROGRAM PE-FILECONVERT MAC VERSION 1.0                               
  USER BMW DATE & TIME  1993 03 12 00.22 49.00    9.9300    295K U     
 AU1 TM  50     0     0 LUAG             .630000 - .730000  .00010     
 FILE NAME ON IBM-PC  = LUAG9.SP          ON MAC= P12033.04            
 NO_POINTS  =  1001.    pts   DATA_INTV =  .00010 _m                   
 MIN_LAMBDA =   .630000 _m     MIN_DATA =    .07410                    
 MAX_LAMBDA =   .730000 _m    MAX_DATA =    .85490                     
 SCANSPEED  = 15.000000 nm/min SLITWIDTH=   .20000 nmITA =   0.        
       RESP =    .500  sec        ISMS =   0.       DATE=93/05/06      
       INST = 509.                    ? =   0.                         
 ITHACA CORP SAMPLE                                                    
 0:22:49  12-03-1993                                                   
  This spectra is part of Database LASERS
 Database LASERS was created by Pat Cross working 
 at NASA Langley Research Center, Internal Operations Group,
 Aerospace Electronics Systems Division, Remote Sensing 
 Technology Branch. phone:(757)864-1633   fax:(757)864-7894 
     e-mail p.l.cross@larc.nasa.gov 
     homepage http://aesd.larc.nasa.gov/laser/dbmain.htm
  EOH.(1X,F11.4)                                                       
  1001.         
    178.2922    
    252.2365    
    216.4754    
    130.8509    
    173.6612    
    159.4286    
    168.9660    
    269.1652    
    219.0481    
    161.9384    
    207.1969    
    219.1513    
    216.7994    
    178.7161    
    114.5958    
    133.6181    
    219.3176    
    138.4273    
    107.6150    
     46.0785    
    174.1855    
    145.6873    
    129.0904    
    276.8595    
    179.0759    
    176.7262    
    183.9032    
    143.5023    
     91.3389    
    255.5372    
    153.1047    
    243.6621    
    110.4345    
    127.0716    
    224.6668    
    188.9521    
    239.0440    
    306.0256    
    177.1477    
    148.6428    
    275.0144    
    127.3374    
    310.9760    
     35.0369    
    311.0443    
    117.9694    
    189.3035    
     84.8447    
    313.5682    
    289.6554    
    168.0156    
    227.5987    
    284.9683    
    222.8933    
    249.1722    
    256.3725    
    388.2308    
    285.1254    
    175.4074    
    175.4413    
    213.5779    
    227.9217    
     38.0075    
    130.4086    
    251.8816    
    275.8128    
    170.9091    
    199.5049    
    323.7912    
    254.4284    
    135.3826    
    252.1052    
      5.2709    
     40.7236    
    266.5349    
    240.2929    
    126.0749    
    223.6507    
    240.3889    
    140.4194    
    114.3447    
    169.0059    
    154.7669    
    211.9218    
    245.3524    
    202.4550    
    176.2951    
    212.0455    
    169.2226    
    221.6479    
    185.9410    
    188.3523    
    269.4924    
    193.1782    
    129.0203    
    112.4421    
    105.3593    
    248.1524    
    183.8171    
    181.4669    
    133.9577    
    281.7322    
    193.4642    
    236.4032    
    298.5747    
    191.1771    
    253.2090    
    172.2010    
    222.2463    
    191.3008    
    177.0520    
    284.4314    
    191.3917    
    220.0154    
    222.4284    
    279.7759    
    291.7625    
    313.3414    
    310.9785    
    277.5058    
    282.3202    
    239.3477    
    213.1435    
    253.7367    
     70.6987    
    395.2043    
    239.5020    
    251.4646    
    237.1733    
    108.7531    
    306.5606    
    320.9684    
    285.0876    
    246.8776    
    239.7438    
    125.5398    
     99.4843    
    189.7822    
    232.7145    
    187.4641    
    333.2236    
    321.2697    
    247.1534    
    451.1534    
    398.1918    
    182.8843    
    173.3961    
    194.8509    
    264.0608    
    386.3216    
    128.3740    
    307.2054    
    130.8134    
    295.2974    
    164.1301    
    257.1033    
    242.8103    
    355.3358    
    171.3849    
    355.3969    
    321.8565    
    444.4661    
    319.5132    
    338.7228    
    281.2805    
    324.4012    
    317.2411    
    257.4729    
    269.4438    
    485.7352    
     43.7239    
    176.5373    
    430.3376    
    252.8747    
    293.5396    
    219.5251    
    233.8683    
    250.6040    
    114.9882    
    300.8728    
    320.0609    
    351.2637    
    433.0518    
    534.5313    
    447.5726    
    450.0130    
    358.6143    
    389.8794    
    329.8821    
    227.1009    
    370.7396    
    365.9651    
    351.5972    
    270.1920    
    215.3336    
    334.8934    
    301.3797    
    375.7525    
    370.9793    
    327.8199    
    385.4516    
    280.0011    
    320.7147    
    253.7756    
    232.3174    
    316.0216    
    373.6146    
    361.6440    
    400.1216    
    354.4988    
    297.0116    
    323.3825    
    371.3914    
    496.7216    
    239.7717    
    436.4474    
    450.9337    
    443.7371    
    220.8080    
    475.1580    
    422.1382    
    484.8732    
    285.4017    
    137.6863    
    147.2158    
    424.6908    
    350.2058    
    367.0312    
    292.7564    
    448.9093    
    381.5362    
    420.0567    
    420.0812    
    439.3895    
    449.0555    
    458.7297    
    456.3521    
    425.0426    
    437.1197    
    305.0456    
    396.2499    
    427.5747    
    442.0570    
    507.2707    
    410.8102    
    490.4090    
    367.5912    
    437.3871    
    449.4642    
    597.1182    
    568.0242    
    640.9447    
    782.6569    
    750.8477    
    915.5301    
   1096.5054    
   1329.4420    
    987.3074    
    935.3937    
   1109.0800    
    817.2443    
    851.6758    
    893.5627    
    896.0614    
    707.1597    
    714.5119    
    712.0941    
    751.2477    
    775.7713    
    714.6264    
    626.8909    
    797.9229    
    682.9815    
   1077.1210    
    834.8387    
    874.2306    
    901.3663    
    977.9834    
    871.8536    
   1079.7770    
    928.6229    
   1089.7904    
    901.5409    
   1157.1644    
   1127.2431    
   1114.8073    
   1075.0050    
    983.2240    
   1017.9431    
    975.8500    
    993.2102    
    874.6870    
    961.0908    
    857.5175    
    887.0945    
    887.1234    
    946.3727    
   1082.7824    
   1207.5990    
   1247.7222    
   1275.3660    
   1282.9330    
   1205.2102    
   1185.2270    
   1142.7864    
   1165.2833    
    961.4887    
   1152.8550    
    944.2413    
    966.5186    
    791.6738    
    737.8227    
    796.6352    
    789.3102    
    669.5448    
    620.8828    
    625.7750    
    497.3061    
    623.3987    
    723.3826    
    572.4553    
    633.2191    
    608.9301    
    784.6915    
    674.7047    
    621.1688    
    669.8861    
    750.5137    
    782.3812    
    550.8859    
    691.9487    
    550.9438    
    635.9534    
    597.0873    
    709.1455    
    626.3088    
    633.6340    
    856.2975    
    704.3734    
    868.6559    
    785.1620    
    937.7542    
    989.7233    
    994.7060    
   1059.2390    
    861.4439    
   1074.2160    
   1076.7310    
   1229.0451    
   1259.1670    
   1241.6350    
   1339.6923    
   1171.5971    
   1327.1580    
   1385.1871    
   1415.5460    
   1249.3291    
   1067.0574    
   1104.4083    
   1136.8350    
   1044.7763    
   1052.2580    
   1111.9950    
   1020.0510    
    982.9064    
    953.2490    
    918.6951    
    982.9884    
   1172.0430    
    776.1681    
    970.6968    
   1052.5340    
   1104.7940    
    973.2543    
   1214.7360    
   1232.2960    
   1114.8700    
   1224.8310    
   1212.3390    
   1209.8670    
   1199.8782    
   1172.3950    
   1184.9250    
   1290.2473    
   1335.5664    
   1137.5500    
   1057.9140    
   1353.2910    
   1165.0950    
   1025.7170    
    998.4800    
    926.7938    
    988.6263    
    919.4352    
   1065.5870    
    848.0629    
   1006.0770    
    954.1249    
   1043.3400    
    848.1669    
    875.2587    
    902.3920    
    959.2059    
    870.4146    
    836.0137    
    764.9048    
    821.3267    
    718.4827    
    838.5829    
    907.5364    
    772.3843    
    772.4155    
    855.8954    
    831.3416    
    907.6759    
    962.0276    
    811.7803    
    878.1829    
    981.9018    
    829.0510    
    873.3367    
    826.6456    
    898.0272    
   1048.9771    
   1039.0800    
   1056.4860    
    994.4991    
    952.4635    
    974.7436    
   1091.4074    
    920.4342    
   1044.2280    
   1031.8430    
   1002.1172    
   1151.3550    
   1069.1770    
    903.3362    
    994.7891    
   1264.1041    
   1188.9614    
   1304.3570    
   1397.6572    
   1109.1810    
   1264.2350    
   1249.2064    
   1405.3450    
   1269.3341    
   1307.0560    
   1327.2170    
   1410.5070    
   1456.0953    
   1377.7190    
   1562.8634    
   1527.2551    
   1621.5960    
   1453.6950    
   1545.1441    
   1760.1210    
   1842.6380    
   1631.9521    
   1716.5120    
   1555.4570    
   1775.6962    
   1868.6160    
   1837.6353    
   1988.0021    
   1990.6300    
   2076.7140    
   2205.2020    
   2108.1513    
   2058.5040    
   2252.6804    
   2576.9210    
   2654.7900    
   2716.7700    
   2668.2924    
   2955.6313    
   3018.5370    
   3139.4184    
   3263.7970    
   3523.2751    
   3823.1660    
   3726.5210    
   4055.3990    
   4203.0030    
   4319.5283    
   4816.3790    
   5356.5244    
   6336.4614    
   7872.3613    
   9591.9640    
  11935.8100    
  15241.2620    
  19586.7100    
  23495.8900    
  24306.7630    
  21882.0600    
  18412.3900    
  15822.4500    
  14414.6240    
  14608.4510    
  15266.6300    
  17707.5740    
  21020.6800    
  24761.2320    
  27734.7940    
  28140.5800    
  26145.7100    
  23330.4210    
  21229.4100    
  20459.7920    
  21249.7610    
  24299.3300    
  28361.2000    
  34277.8600    
  42091.9500    
  48058.4100    
  49245.8630    
  46176.1200    
  43168.3200    
  41714.5420    
  41978.0930    
  42341.3800    
  41789.5600    
  38843.6800    
  33110.4100    
  26609.0400    
  20801.6100    
  16565.8510    
  13630.4630    
  11398.3510    
  10284.0820    
   9551.3430    
   9359.1380    
   9555.1820    
  10213.6120    
  10708.9130    
  11200.2510    
  12446.5100    
  15147.2400    
  18703.7320    
  19606.6520    
  16523.3320    
  12512.3400    
   8965.6450    
   6584.8270    
   5116.5380    
   4570.9692    
   3876.2553    
   3522.2500    
   3094.4960    
   2982.1442    
   2845.9702    
   2767.4250    
   2710.7400    
   2563.0000    
   2339.4090    
   2480.2314    
   2453.6154    
   2651.6280    
   2517.6630    
   2681.2714    
   2501.6940    
   2533.7731    
   2384.6620    
   2358.1720    
   2443.1684    
   2360.8780    
   2440.5640    
   2437.9282    
   2614.3022    
   2555.3701    
   2453.9692    
   2582.1960    
   2846.5290    
   2930.8874    
   2909.1132    
   3244.1430    
   3316.2870    
   3700.6560    
   4118.5102    
   4654.8012    
   5291.4003    
   5662.6420    
   6536.8364    
   7372.3740    
   8440.2324    
   9173.8000    
   9942.8164    
   9993.1030    
   9942.8671    
   9537.6894    
   8258.4340    
   7297.9440    
   6306.9033    
   5270.2840    
   4661.1191    
   4310.7030    
   4066.9780    
   3735.1733    
   3403.1672    
   3272.4533    
   3153.6032    
   3068.3564    
   2849.9902    
   2945.2700    
   3173.0014    
   3217.2170    
   3308.6972    
   3582.7934    
   3661.8144    
   3450.9362    
   3644.9090    
   3571.6370    
   3356.1290    
   3187.0250    
   2918.2792    
   2720.4040    
   2484.4152    
   2264.3470    
   2333.0620    
   2167.0541    
   2067.5940    
   1986.8180    
   2101.6220    
   1968.6650    
   1810.7820    
   1919.3990    
   2125.2780    
   2373.0200    
   2209.3124    
   2639.9790    
   2766.6794    
   2984.1870    
   2978.7451    
   3292.7080    
   3387.3144    
   3353.9052    
   3572.2450    
   3679.4951    
   3889.9760    
   4134.4820    
   4262.2400    
   4473.0400    
   4757.5844    
   4808.4180    
   4620.8022    
   4306.0920    
   4082.6284    
   3776.1591    
   3606.3381    
   3326.4260    
   3011.9970    
   2837.6190    
   2624.4262    
   2370.9960    
   2259.9750    
   2099.8100    
   1878.7200    
   1667.7020    
   1706.1621    
   1545.2380    
   1302.4460    
   1527.4810    
   1491.9390    
   1431.1460    
   1340.2851    
   1277.4330    
   1159.7863    
   1072.6291    
   1352.9820    
   1345.4440    
   1358.0703    
   1378.2740    
   1292.6730    
   1282.6512    
   1300.2651    
   1209.9902    
   1482.1290    
   1205.0380    
   1275.2330    
   1345.6850    
   1245.1832    
   1202.6281    
    996.0795    
   1080.4720    
   1055.6380    
   1215.2370    
   1127.8372    
   1192.7660    
   1187.7924    
   1237.8760    
   1026.0050    
   1268.0200    
   1115.5230    
   1013.6794    
   1093.1654    
   1222.9840    
   1167.9970    
   1150.5450    
   1230.5700    
   1090.8010    
    966.8108    
   1093.3320    
   1118.2530    
   1265.7930    
   1100.8680    
   1245.7710    
   1123.3320    
   1230.7850    
   1253.3684    
   1245.8690    
   1056.2580    
   1063.7340    
   1271.0220    
   1465.2612    
   1140.9650    
   1088.6904    
   1175.9610    
   1238.5390    
   1331.4991    
   1344.1142    
   1356.7374    
   1339.1230    
   1161.1170    
   1341.6890    
   1171.1520    
   1206.1690    
   1251.2860    
   1228.7491    
   1276.4240    
   1485.9162    
   1351.9340    
   1506.2703    
   1465.7080    
   1463.1920    
   1679.7751    
   1470.8450    
   1392.4340    
   1491.1822    
   1524.2210    
   1592.9890    
   1281.7250    
   1587.9350    
   1471.0074    
   1453.2940    
   1744.1422    
   1575.2860    
   1654.4534    
   1585.5281    
   1511.7490    
   1400.3150    
   1580.4970    
   1476.2880    
   1509.3044    
   1468.7242    
   1231.8884    
   1309.7170    
   1134.4690    
   1067.2920    
   1176.9360    
   1214.4760    
   1082.2750    
   1292.2600    
   1087.2941    
    879.4695    
   1129.6720    
   1177.1000    
   1157.1491    
   1127.2443    
   1127.2634    
   1214.7030    
   1087.4791    
    995.6848    
   1037.8461    
   1134.8600    
   1027.9680    
   1000.7344    
   1144.9020    
    941.4309    
   1110.0630    
   1229.9523    
   1187.4410    
   1159.9900    
   1040.5511    
   1232.5521    
   1197.5351    
   1090.3074    
    902.1673    
    889.8760    
    954.0319    
    850.5523    
    870.2516    
    924.4733    
   1140.2790    
   1132.8240    
   1090.5170    
    752.6035    
    971.5157    
    828.6282    
    983.9288    
   1055.8304    
    863.0967    
    909.9052    
    981.5413    
    853.3289    
    769.9431    
    860.7498    
    843.5621    
    841.1300    
    855.9028    
    777.4008    
    853.4843    
    981.7493    
    833.8777    
    833.8977    
    755.4836    
   1115.8820    
    885.6041    
    944.8124    
    831.5555    
    829.1185    
    846.3401    
    679.9489    
   1043.9444    
    851.3214    
    809.5981    
    888.2712    
    721.5385    
    940.0937    
    814.5989    
    655.7662    
    697.2174    
    660.6818    
    597.5016    
    765.6967    
    648.5791    
    716.8480    
    711.9909    
    758.4466    
    629.2143    
    660.8604    
    653.5798    
    697.4586    
    622.0095    
    544.4144    
    443.0253    
    583.2345    
    815.0003    
    741.5502    
    609.9906    
    644.0432    
    486.5580    
    573.6646    
    651.4160    
    580.9868    
    788.2065    
    702.6516    
    834.8588    
    719.7779    
    467.4294    
    566.5697    
    641.8594    
    651.6143    
    561.7893    
    467.5449    
    627.3602    
    685.8020    
    661.4596    
    746.8818    
    717.5858    
    705.4004    
    446.0039    
    581.3773    
    528.1169    
    620.2612    
    676.2501    
    756.8410    
    625.1918    
    465.4415    
    642.2547    
    693.4236    
    542.8124    
    521.0652    
    562.2337    
    342.9780    
    475.2429    
    299.9284    
    468.0511    
    499.4473    
    552.6761    
    674.1486    
    369.5083    
    214.1494    
    381.5557    
    424.8440    
    458.5836    
    567.3636    
    531.0675    
    444.1900    
    273.9228    
    252.4565    
    321.7857    
    369.7455    
    446.7048    
    384.1925    
    494.9855    
    357.8359    
    204.9495    
    245.4691    
    276.5223    
    389.1218    
    389.1451    
    449.3108    
    334.0195    
    408.4383    
    205.1218    
    240.8821    
    245.6732    
    276.7244    
    444.6428    
    471.1772    
    329.4025    
    214.7936    
    110.3090    
    327.0732    
    317.5179    
    284.0588    
    319.9572    
    269.7735    
    343.9488    
    212.5878    
    293.7248    
    167.4382    
    272.2654    
    481.1277    
    243.6730    
    234.1586    
    227.0281    
     56.2208    
    184.2254    
    334.5980    
     94.1224    
    224.7530    
    411.4694    
    148.7033    
    365.8734    
    198.6465    
    227.2417    
    234.4136    
    404.3849    
    120.3702    
    289.3741    
    177.3717    
    194.0412    
    232.1608    
    301.4175    
    179.8353    
      0.0001    
    529.9557    
    315.8521    
    342.2172    
    318.2863    
    118.2508    
    172.8548    
    380.6797    
    335.1314    
    111.2312    
    368.7368    
    385.5630    
    289.7589    
    125.5325    
    457.7963    
    510.9127    
    165.9421    
    270.7469    
    364.1070    
    414.5708    
    297.0981    
    441.0840    
    278.0170    
    180.3441    
    266.1262    
    268.5301    
    102.1109    
    182.8055    
    462.9182    
    328.3910    
    318.8327    
    333.2212    
    326.0580    
    354.8287    
    297.3892    
    290.2412    
    133.1299    
    259.2300    
     90.5357    
    254.5038    
    145.0730    
    338.2223    
    381.4138    
