  11100 11  1 04TYLF7.SP PYLF   NYC  .000 A SI 010180 00.01   1        
  PROGRAM PE-CONVERT VERSION 02.31                                     
  USER NYC DATE & TIME  1989 12 12 10.25 13.06    4.9000    295K #     
 AU1 TM  50     0     0 YLF             1.550000 - 2.050000 .00100     
 FILE NAME ON PE-3600 = 004TYLF7.SP       ON PC = 004TYLF7.SP          
 NO_POINTS  =   501.    pts   DATA_INTV =  .001000 æm                  
 MIN_LAMBDA =  1.550000 æm     MIN_DATA =  .0000000                    
 MAX_LAMBDA =  2.050000 æm     MAX_DATA =  3523.100                    
 SCANSPEED  = .01500000 æm/min SLITWIDTH=   .00050 æmITA =   0.        
       RESP =   2.000   sec        ISMS =   0.       DATE=YY/MM/DD     
       INST = 509.                    ? =   0.                         
                                                                       
  This spectra is part of Database LASERS
 Database LASERS was created by Pat Cross working 
 at NASA Langley Research Center, Internal Operations Group,
 Aerospace Electronics Systems Division, Remote Sensing 
 Technology Branch. phone:(757)864-1633   fax:(757)864-7894 
     e-mail p.l.cross@larc.nasa.gov 
     homepage http://aesd.larc.nasa.gov/laser/dbmain.htm
  EOH     (1X,F11.4)                                                   
   501.         
      0.0000    
    111.5084    
      0.0000    
      0.0000    
      0.0000    
      0.0000    
      0.0000    
      0.0000    
      0.0000    
      0.0000    
     52.8947    
      0.0000    
      0.0000    
      4.9827    
      0.0000    
     50.9624    
      0.0000    
     61.9903    
     16.1544    
      0.0000    
     73.0767    
      0.0000    
     31.6437    
      0.0000    
      0.0000    
      0.0000    
      0.0000    
      0.0000    
      0.0000    
      0.0000    
      0.0000    
      0.0000    
      0.0000    
     25.6461    
      0.0000    
      8.2752    
     34.5377    
    172.4657    
     91.4845    
    181.3383    
    120.0381    
    249.4722    
     71.9993    
    234.1987    
    115.8610    
    124.6682    
     96.2658    
    251.9698    
     83.2406    
     72.3536    
     37.4287    
     22.1899    
      0.0000    
    203.9785    
    133.8852    
    133.9359    
    245.8381    
    195.4077    
    274.4992    
    191.1217    
    213.1116    
    285.6433    
    393.5498    
    268.1620    
    462.0395    
    398.1113    
    380.5308    
    193.7244    
    464.4483    
    327.8404    
    380.7341    
    134.7489    
    413.9030    
    246.7019    
    341.2971    
    231.4336    
    328.1967    
    194.2335    
    568.8629    
    218.4680    
    425.3344    
    403.3352    
    602.2810    
    313.1501    
    509.4446    
    509.4956    
    629.0822    
    401.4365    
    553.8784    
    454.4809    
    602.6892    
    361.9813    
    434.7726    
    419.3830    
    467.9822    
    318.1640    
    441.5976    
    507.9010    
    607.5326    
    466.0298    
    446.2166    
    541.2697    
    574.5170    
    567.9238    
    654.3935    
    678.8474    
    769.9990    
    814.5618    
    701.2027    
    912.7626    
   1080.5728    
   1035.8218    
    888.3686    
   1201.9418    
   1085.2617    
   1271.7913    
   1145.9323    
   1459.2306    
   1371.1487    
   1427.6743    
   1164.1016    
   1337.4563    
   1362.3243    
   1283.4651    
   1330.8435    
   1504.9108    
   1693.3690    
   1709.3501    
   1869.0430    
   2008.7211    
   2095.9895    
   2324.1580    
   2291.8733    
   2486.3262    
   2649.0891    
   2361.3513    
   2218.2627    
   2257.5100    
   2181.5103    
   1862.7510    
   1659.9761    
   1544.2527    
   1646.4421    
   1307.0265    
   1212.5315    
   1136.2059    
   1264.3816    
    995.1601    
    972.8541    
    861.2919    
   1037.8344    
    937.2595    
    877.0553    
    843.6695    
   1183.8278    
    957.5735    
    953.1534    
   1062.8323    
   1240.2483    
   1083.1042    
   1141.4747    
   1063.0405    
   1382.4525    
   1330.6094    
   1152.9039    
   1355.5245    
   1430.1055    
   1595.5035    
   1439.2515    
   1480.0226    
   1620.6350    
   1900.9812    
   1896.4650    
   2036.2233    
   2123.5513    
   2395.8120    
   2176.5684    
   2400.5435    
   2372.8284    
   2391.3909    
   2303.5940    
   2430.8582    
   2266.7654    
   2607.3975    
   2377.7690    
   2556.3496    
   2465.8794    
   2850.2893    
   2754.4946    
   2976.9714    
   3106.3506    
   3406.6091    
   3420.8987    
   3523.1301    
   3516.0466    
   3511.3433    
   3215.1458    
   2996.1760    
   2708.3467    
   2515.2803    
   2313.8813    
   2187.0918    
   1943.7904    
   1985.0613    
   1911.8629    
   1708.8623    
   1645.2421    
   1724.8989    
   1681.7181    
   1547.8069    
   1545.5953    
   1554.7150    
   1491.3353    
   1545.7543    
   1482.3887    
   1468.8625    
   1584.4639    
   1446.3521    
   1453.1877    
   1371.9055    
   1374.2162    
   1205.3291    
   1311.1704    
   1250.4197    
   1383.4602    
   1158.3672    
   1185.3717    
   1106.8647    
   1334.0342    
   1154.0895    
   1089.0891    
    995.1108    
   1176.7070    
   1091.4913    
   1087.0612    
   1019.9274    
   1132.0186    
   1152.2717    
   1147.8351    
   1152.3789    
   1235.5784    
   1343.7487    
   1334.7826    
   1368.6719    
   1585.9565    
   1513.4705    
   1506.7317    
   1511.3153    
   1314.8147    
   1314.8684    
   1229.3663    
   1114.8799    
    891.2692    
    828.9163    
    784.4473    
    820.1152    
    611.3975    
    589.3090    
    584.9344    
    534.1016    
    567.3329    
    516.5249    
    393.0005    
    452.5875    
    622.9102    
    514.5287    
    494.6999    
    574.3527    
    656.3765    
    583.3167    
    523.6453    
    587.8511    
    658.8146    
    618.9669    
    738.8422    
    665.6329    
    639.0790    
    701.2484    
    690.2021    
    708.0166    
    661.4659    
    668.1759    
    623.8897    
    639.4609    
    694.9695    
    531.0938    
    522.3047    
    630.8096    
    500.3183    
    681.9247    
    549.0582    
    768.6653    
    544.7438    
    746.5482    
    536.0096    
    759.9946    
    711.1651    
    684.5856    
    505.2865    
    620.3892    
    786.9531    
    695.9018    
    602.8330    
    565.2554    
    571.9500    
    713.8813    
    375.5785    
    466.0317    
    532.3579    
    452.9014    
    441.9238    
    373.6549    
    428.8016    
    349.5469    
    387.0360    
    334.2570    
    288.1344    
    169.6931    
    176.3239    
     47.2777    
     86.6773    
      0.0000    
    220.4008    
      0.0000    
    176.6576    
      0.0000    
     41.1155    
      0.0000    
    108.9948    
      0.0000    
     80.6764    
      0.0000    
    181.4853    
      0.0000    
     91.8326    
     89.7013    
    229.9574    
    129.1973    
    276.1775    
    120.5529    
    122.7979    
    243.4056    
    432.6783    
    155.8091    
    204.0825    
     81.5168    
    120.9459    
    186.7108    
      0.0000    
    105.7981    
      0.0000    
     73.1084    
      0.0000    
    149.8002    
     71.0914    
     58.0356    
      0.0000    
    158.7859    
      0.0000    
    218.0873    
      0.0000    
    102.0998    
    115.2828    
    202.9609    
      0.0000    
    240.3707    
     38.9990    
    207.5717    
     85.0006    
    137.5682    
    113.5508    
    115.7935    
    115.8504    
     89.6588    
     24.1658    
     48.2467    
     72.3392    
     68.0242    
     74.6395    
      0.0000    
      0.0000    
      0.0000    
    140.4986    
      0.0000    
      0.0000    
      0.0000    
      0.0000    
      0.0000    
     48.9897    
      0.0000    
     14.1666    
      0.0000    
     31.7466    
      0.0000    
      0.0000    
      0.0000    
     71.3010    
      0.0000    
    121.7155    
    115.2100    
    191.9171    
     16.9824    
     91.3204    
    249.1268    
    306.2985    
     67.4479    
    148.4448    
    214.2492    
    231.8575    
    313.1837    
     74.2924    
    175.0215    
    131.2773    
    175.1374    
    401.5141    
    326.7245    
    269.6410    
    370.8528    
    129.4389    
    483.4078    
    448.1563    
    210.6738    
    437.2455    
    413.0515    
    554.4069    
    687.3779    
    388.9911    
    430.9202    
    638.7678    
    360.5422    
    545.9122    
    318.8604    
    237.6422    
    371.7847    
    150.0732    
    165.4654    
    389.5752    
    215.9950    
    222.6352    
    209.5345    
    266.6483    
    478.0705    
    135.2196    
    222.9287    
    385.6413    
    429.7712    
    365.9388    
    540.2767    
    399.0926    
    544.8169    
    609.0422    
    472.0384    
    536.1492    
    609.2190    
    423.6866    
    463.4431    
    489.9939    
    476.8023    
    729.2747    
    450.4428    
    446.0898    
    638.4919    
    494.7606    
    415.4009    
    452.9479    
    318.6663    
    360.5191    
    371.5840    
    316.6429    
    369.5036    
    380.5736    
    200.4612    
    404.9210    
    301.5535    
    530.8211    
    391.8797    
    429.4047    
    319.3809    
    623.9907    
    513.4419    
    431.8461    
    586.5309    
    571.1045    
    509.2675    
    757.4799    
    513.8008    
    615.6132    
    602.3875    
    460.9993    
    651.2440    
    849.0590    
    689.0621    
    620.4035    
    620.4636    
    527.5980    
    649.3849    
    578.5806    
    527.7786    
    600.8318    
    569.9103    
    433.0476    
