  11100 11  1   BR90     POSU   BMW  .000 U S1 022192 00.01   1        
  PROGRAM LAMBDA-9   VERSION 02.31                                     
  USER BMW DATE & TIME  1992 02 24 09.54 23.56    4.3900    295K P     
 AU1 TM 300     0     0 YLF              .320000 -  .740000 .00020     
 FILE NAME                                ON PC = BR90.DX              
 NO_POINTS  =  2101.    pts   DATA_INTV =  .000200 ˆm                  
 MIN_LAMBDA =   .320000 ˆm     MIN_DATA =    .00570                    
 MAX_LAMBDA =   .740000 ˆm     MAX_DATA =    .94590                    
 SCANSPEED  = 15.000000 NM/MIN SLITWIDTH=   .40000 NM                  
  RESP TIME =  1.0      sec SENSITIVITY = 2          DATE=92/02/21     
 VERTICAL POL. (E PARALLEL TO C-AXIS)                                  
  This spectra is part of Database LASERS
 Database LASERS was created by Pat Cross working 
 at NASA Langley Research Center, Internal Operations Group,
 Aerospace Electronics Systems Division, Remote Sensing 
 Technology Branch. phone:(757)864-1633   fax:(757)864-7894 
     e-mail p.l.cross@larc.nasa.gov 
     homepage http://aesd.larc.nasa.gov/laser/dbmain.htm
  EOH     (1X,F11.4)                                                   
  2101.         
    288.4981    
    281.8889    
    276.1199    
    274.5243    
    252.9414    
    283.8511    
    306.5061    
    304.0663    
    299.9530    
    282.4711    
    277.5349    
    275.1041    
    281.8519    
    263.5788    
    292.8557    
    292.0914    
    277.9642    
    270.5297    
    275.6035    
    272.3384    
    281.5859    
    287.5020    
    288.4079    
    266.7859    
    270.1892    
    289.4536    
    282.0065    
    280.4070    
    295.5138    
    275.5401    
    275.6092    
    277.3463    
    259.0845    
    254.1618    
    280.0555    
    285.1323    
    288.5416    
    251.1095    
    291.1849    
    294.5958    
    286.3077    
    254.7067    
    246.4623    
    274.8274    
    299.9515    
    254.9758    
    277.5305    
    273.4281    
    248.5258    
    259.4019    
    279.4656    
    279.5319    
    267.0936    
    248.8571    
    261.3972    
    266.4582    
    256.5366    
    264.9240    
    272.4867    
    273.3855    
    267.6178    
    283.5251    
    275.2474    
    266.1463    
    255.3930    
    269.6071    
    253.0275    
    254.7542    
    242.3568    
    265.6993    
    269.9272    
    278.3270    
    277.5564    
    265.9537    
    267.6822    
    273.5775    
    261.9807    
    263.7085    
    264.6034    
    262.1691    
    246.4360    
    259.7979    
    277.3507    
    296.6158    
    262.4804    
    254.2250    
    255.1183    
    276.8263    
    253.5786    
    270.2825    
    223.0089    
    237.9859    
    291.3203    
    283.0323    
    267.2564    
    263.9872    
    268.2101    
    262.4435    
    241.7296    
    263.3964    
    255.9706    
    284.3501    
    274.4030    
    281.1324    
    253.7157    
    257.9322    
    248.8498    
    259.7144    
    261.4371    
    259.8327    
    267.3808    
    250.8068    
    276.6622    
    267.5570    
    263.4536    
    271.0049    
    270.2302    
    271.9545    
    277.0122    
    270.4044    
    251.3312    
    267.1892    
    263.9176    
    262.3112    
    270.6924    
    279.9165    
    256.6618    
    260.8767    
    262.5971    
    252.6772    
    254.3960    
    251.1292    
    270.3146    
    254.5656    
    278.7597    
    288.8262    
    281.3734    
    308.9994    
    330.0085    
    294.8954    
    301.6374    
    313.4080    
    321.0043    
    324.4135    
    326.1460    
    335.4338    
    352.3041    
    359.0958    
    348.2068    
    364.2620    
    394.7259    
    413.4236    
    438.1238    
    461.1966    
    508.3563    
    542.8538    
    565.3801    
    624.5239    
    683.2523    
    722.0860    
    762.8956    
    807.4992    
    838.8934    
    836.2554    
    865.0666    
    822.9186    
    822.0762    
    820.3389    
    819.4966    
    832.0893    
    855.4858    
    878.0522    
    904.3046    
    959.7641    
   1053.3770    
   1113.6583    
   1232.7860    
   1357.6520    
   1512.9858    
   1737.9291    
   2099.9663    
   2755.6899    
   4074.1128    
   5258.1533    
   4896.0791    
   3560.3916    
   2966.7144    
   3010.8247    
   3233.8594    
   3187.3191    
   2946.7600    
   2741.2026    
   2648.4661    
   2599.7158    
   2648.5669    
   2799.2517    
   3012.4739    
   3275.0068    
   3436.2573    
   3550.8347    
   3854.3313    
   4376.3389    
   4817.7959    
   5076.7231    
   5152.3882    
   5144.5259    
   5302.7852    
   5480.9253    
   5431.5405    
   4897.3306    
   4005.7732    
   3145.7529    
   2447.2346    
   1918.4689    
   1547.2162    
   1236.6328    
   1028.7681    
    867.7509    
    769.3959    
    660.0253    
    594.6498    
    574.7467    
    527.2974    
    498.9894    
    465.6612    
    444.3904    
    419.7843    
    397.7959    
    387.6942    
    349.8040    
    346.4880    
    312.9858    
    313.8699    
    311.4059    
    296.4071    
    267.2837    
    258.1857    
    264.0503    
    233.3948    
    227.6467    
    241.7732    
    234.3617    
    236.0647    
    206.3472    
    246.9334    
    227.0960    
    230.4522    
    228.8424    
    227.2333    
    235.5573    
    224.0155    
    253.8928    
    202.6337    
    220.8442    
    214.2788    
    220.9346    
    225.9412    
    211.9366    
    221.0695    
    224.4218    
    184.8721    
    217.0713    
    217.9423    
    213.0307    
    200.6985    
    205.6909    
    227.2149    
    200.0069    
    228.9583    
    219.0788    
    191.9002    
    210.0816    
    211.7763    
    192.8553    
    206.9119    
    230.9200    
    200.4013    
    212.8201    
    263.3981    
    224.4751    
    222.0380    
    222.0811    
    221.2974    
    185.0579    
    205.6948    
    203.2635    
    188.4778    
    149.9375    
    203.3916    
    196.0161    
    227.4277    
    218.3761    
    235.7895    
    220.9402    
    240.8441    
    260.8000    
    253.3685    
    209.5465    
    212.8897    
    222.0185    
    217.9288    
    218.7963    
    217.1859    
    223.8388    
    227.1881    
    211.5303    
    184.3815    
    202.5387    
    209.1783    
    202.6210    
    212.5619    
    215.9057    
    193.6807    
    213.5099    
    198.7045    
    208.6396    
    220.2398    
    221.1069    
    211.2369    
    202.2041    
    207.1925    
    208.8825    
    205.6232    
    204.0144    
    202.4053    
    213.9949    
    224.7755    
    203.3498    
    190.2105    
    218.2837    
    196.0531    
    195.2691    
    203.5484    
    206.8864    
    211.0511    
    211.0905    
    225.9986    
    206.2189    
    206.2581    
    215.3744    
    209.6359    
    205.5510    
    198.1718    
    198.2106    
    217.2209    
    199.9358    
    200.7986    
    218.1624    
    210.7713    
    196.7953    
    198.4809    
    205.9374    
    210.0996    
    192.0081    
    204.4028    
    211.0393    
    198.7101    
    186.4010    
    197.1388    
    208.7161    
    207.1041    
    179.9753    
    204.7059    
    208.0420    
    194.0712    
    217.1951    
    190.0306    
    197.4773    
    195.0437    
    199.1990    
    176.2047    
    206.6915    
    214.1534    
    205.1162    
    191.9739    
    202.7172    
    189.5786    
    192.0844    
    204.4758    
    198.7442    
    207.0228    
    196.3467    
    196.3831    
    193.1264    
    190.6940    
    202.2585    
    198.9991    
    199.8592    
    190.8388    
    202.4031    
    194.2029    
    198.3561    
    190.9827    
    200.0750    
    178.7218    
    205.9153    
    193.5944    
    191.1612    
    192.0198    
    194.5243    
    209.3915    
    183.9015    
    180.6494    
    188.0830    
    193.8776    
    198.8533    
    197.2410    
    203.0423    
    191.5491    
    201.4645    
    191.6189    
    180.9647    
    204.8653    
    199.9557    
    199.9904    
    200.0250    
    198.4125    
    191.8614    
    186.1383    
    187.8170    
    196.0800    
    196.9372    
    178.8795    
    193.7133    
    186.3437    
    183.0896    
    193.8154    
    182.3356    
    188.1240    
    189.8030    
    175.8663    
    181.6495    
    185.7924    
    180.8951    
    180.1070    
    190.0049    
    186.7488    
    185.9600    
    187.6380    
    185.2049    
    195.9318    
    201.7294    
    181.1954    
    182.8716    
    201.0049    
    184.5816    
    206.0151    
    176.4327    
    197.0194    
    196.2289    
    192.1466    
    192.1793    
    190.5669    
    171.7040    
    179.9465    
    178.3361    
    192.3421    
    201.4300    
    185.8282    
    172.7193    
    179.3193    
    178.5301    
    175.2780    
    181.8800    
    189.3096    
    196.7468    
    195.9555    
    185.2949    
    173.8285    
    186.1807    
    184.5683    
    194.4687    
    182.9884    
    179.7340    
    201.1498    
    179.7971    
    179.0072    
    174.1130    
    168.4017    
    193.8977    
    190.6383    
    185.7365    
    184.9456    
    155.4479    
    172.6901    
    179.2882    
    190.0024    
    191.6786    
    185.9538    
    166.2840    
    186.8375    
    181.1163    
    170.4761    
    186.9297    
    184.4942    
    173.0290    
    183.7340    
    181.2999    
    173.9411    
    167.4094    
    167.4398    
    185.5292    
    186.3815    
    185.5897    
    180.6905    
    165.1316    
    175.8241    
    179.9593    
    158.6674    
    180.8407    
    177.5860    
    180.0790    
    175.1832    
    180.9599    
    159.6655    
    161.3331    
    162.1821    
    191.7629    
    176.1815    
    172.1085    
    166.3978    
    159.8722    
    152.5343    
    162.3882    
    168.9746    
    167.3643    
    178.8793    
    175.6250    
    161.7148    
    166.6609    
    158.4973    
    161.8018    
    169.2073    
    184.8319    
    188.1482    
    188.1770    
    179.1689    
    170.1714    
    162.8228    
    175.9714    
    164.5191    
    172.7464    
    189.1992    
    162.9656    
    167.9116    
    174.5008    
    167.9683    
    157.3463    
    162.2879    
    165.5937    
    181.2092    
    173.8501    
    153.3953    
    156.6965    
    153.4514    
    154.2973    
    173.1697    
    158.4459    
    166.6655    
    154.4088    
    154.4365    
    167.5686    
    161.0413    
    154.5196    
    167.6515    
    170.9587    
    181.6544    
    179.2188    
    162.8446    
    154.6846    
    162.8993    
    171.1233    
    150.6765    
    163.8006    
    167.1056    
    153.2121    
    141.7941    
    163.0898    
    162.2981    
    158.2305    
    171.3675    
    164.0172    
    164.8635    
    166.5291    
    182.1432    
    160.8481    
    159.2374    
    160.0830    
    174.0425    
    158.4986    
    155.2512    
    168.3821    
    164.3110    
    155.3308    
    155.3572    
    161.9330    
    153.7738    
    160.3480    
    166.1083    
    168.5932    
    170.2588    
    159.6341    
    153.9312    
    161.3238    
    150.7115    
    140.9305    
    161.4019    
    165.5237    
    154.0873    
    171.3132    
    151.6851    
    168.0856    
    155.0089    
    144.4050    
    148.5174    
    152.6314    
    172.3135    
    178.0818    
    163.3493    
    170.7500    
    166.6774    
    150.3313    
    138.1012    
    152.0179    
    160.2261    
    143.8940    
    170.1082    
    159.4831    
    158.6896    
    153.8051    
    152.1946    
    140.7783    
    138.3535    
    151.4518    
    160.4776    
    163.7783    
    146.6218    
    146.6467    
    145.0370    
    158.1463    
    145.9038    
    145.1113    
    154.9473    
    169.7126    
    170.5571    
    148.4790    
    152.5920    
    156.7066    
    155.9132    
    160.8484    
    154.3256    
    163.3538    
    165.0162    
    168.3180    
    160.9703    
    138.9204    
    166.7522    
    165.9569    
    141.4429    
    152.0905    
    150.4795    
    165.2341    
    179.1974    
    168.5596    
    169.4033    
    162.0545    
    163.7160    
    155.5543    
    165.4017    
    179.3648    
    178.5678    
    179.4123    
    175.3335    
    178.6389    
    180.3037    
    177.0454    
    170.5083    
    182.0165    
    188.6106    
    212.4999    
    217.4704    
    213.3708    
    210.0975    
    215.0667    
    220.8638    
    228.3169    
    232.4712    
    241.5904    
    252.3772    
    254.0580    
    258.2257    
    269.8665    
    265.7386    
    269.9126    
    275.7512    
    286.5866    
    304.1078    
    322.5057    
    349.3353    
    374.5760    
    380.4950    
    421.0722    
    445.7022    
    479.7974    
    506.3316    
    549.3115    
    590.8022    
    653.4551    
    720.1529    
    781.2208    
    856.2276    
    954.6688    
   1062.6938    
   1197.5706    
   1369.3597    
   1546.1077    
   1805.9503    
   2141.6472    
   2572.3003    
   3185.7129    
   3950.8696    
   4646.5874    
   4972.7217    
   4719.3926    
   4225.5503    
   3889.2039    
   3885.2146    
   4020.1072    
   4138.0659    
   4076.1484    
   3816.1057    
   3446.4197    
   3073.4546    
   2700.7813    
   2384.9421    
   2117.6448    
   1893.2983    
   1710.4448    
   1579.1033    
   1465.5310    
   1385.3048    
   1331.6588    
   1299.2802    
   1297.4004    
   1310.7429    
   1355.6570    
   1408.5510    
   1437.5685    
   1387.4005    
   1257.7052    
   1119.9662    
    988.3322    
    891.3141    
    817.7991    
    750.2948    
    715.0159    
    710.6360    
    713.2973    
    733.5914    
    809.0065    
    913.1417    
   1028.8110    
   1102.5956    
   1055.5098    
    892.4690    
    744.3375    
    641.6474    
    577.4162    
    545.5135    
    522.3235    
    530.9327    
    545.5759    
    549.0415    
    566.3096    
    594.0073    
    634.8625    
    674.1865    
    721.6417    
    764.0768    
    803.1859    
    828.1869    
    793.4359    
    711.1777    
    635.0270    
    538.0992    
    482.4175    
    442.4140    
    402.6204    
    374.8104    
    363.0547    
    342.9301    
    325.3672    
    317.8640    
    296.1921    
    279.5684    
    273.7718    
    267.9796    
    263.0209    
    248.1251    
    250.6295    
    243.1999    
    246.5299    
    233.3185    
    234.9914    
    235.0113    
    243.2997    
    244.9746    
    257.4165    
    272.3702    
    288.1855    
    305.7016    
    355.0950    
    441.2365    
    549.0089    
    643.4931    
    661.8480    
    615.6777    
    551.6722    
    478.8089    
    404.9484    
    303.3962    
    259.3500    
    227.1063    
    206.5161    
    198.3069    
    168.7783    
    167.1597    
    164.7225    
    160.6491    
    154.9425    
    165.5994    
    157.4344    
    145.1947    
    141.1317    
    142.7832    
    148.5190    
    149.3553    
    128.1602    
    135.5162    
    137.9823    
    141.2655    
    141.2845    
    139.6715    
    143.7714    
    122.5920    
    132.3876    
    133.2219    
    134.8713    
    134.0746    
    135.7247    
    132.4819    
    131.6853    
    136.5968    
    128.4629    
    121.1523    
    130.9455    
    125.2610    
    123.6507    
    120.4129    
    115.5497    
    119.6360    
    133.5027    
    134.3362    
    128.6491    
    141.7156    
    130.3160    
    120.5610    
    116.5113    
    127.1121    
    115.7345    
    116.5664    
    114.9577    
    123.9276    
    123.1316    
    126.4073    
    121.5401    
    118.3030    
    108.5634    
    111.8328    
    117.5437    
    115.1216    
    114.3263    
    116.7849    
    126.5706    
    122.5174    
    120.0932    
    127.4394    
    127.4574    
    125.0320    
    118.5378    
    116.1152    
    113.6934    
    115.3374    
    116.1688    
    117.8133    
    121.0862    
    117.8489    
    121.9358    
    117.8844    
    115.4619    
    119.5474    
    113.0578    
    106.5738    
    109.8416    
    116.3636    
    111.5026    
    117.2123    
    116.4163    
    118.8743    
    112.3853    
    116.4688    
    105.9192    
    111.6251    
    109.2039    
    102.7236    
    105.9889    
    112.5072    
    109.2733    
    112.5418    
    113.3723    
    118.2692    
    115.0328    
    114.2372    
    118.3209    
    109.3941    
    110.2240    
    106.1786    
    108.6333    
    113.5270    
    107.8549    
    113.5611    
    120.0854    
    113.5952    
    109.5479    
    108.7526    
    103.8957    
    101.4771    
    110.4285    
    112.8838    
    105.5878    
    102.3566    
    105.6215    
    107.2626    
    107.2794    
    104.0475    
    106.5006    
    106.5173    
    107.3465    
    104.1144    
    100.8837    
     96.8435    
    102.5408    
    106.6174    
    113.1349    
    113.9647    
    105.8552    
    108.3086    
    113.2012    
    110.7793    
    111.6086    
    107.5621    
    112.4545    
    105.9707    
    106.7990    
    114.1295    
    114.1458    
    110.0979    
    117.4314    
    112.5691    
    110.9596    
    116.6669    
    107.7420    
    117.5128    
    106.9620    
    104.5419    
     99.6878    
     98.8924    
     99.7201    
    108.6678    
    106.2471    
    102.2032    
    106.2792    
    110.3570    
    108.7482    
    100.6443    
    103.0953    
     98.2420    
    103.9392    
    107.2031    
    108.8440    
    113.7359    
    108.0632    
    108.8916    
    107.2825    
    102.4265    
    100.0076    
    100.8350    
     97.6052    
    100.0549    
     99.2591    
    104.9566    
    115.5360    
    113.1127    
    110.6898    
    109.0806    
    117.2248    
    114.8010    
    107.5025    
    112.3935    
    106.7218    
    120.5567    
    120.5722    
    130.3580    
    123.8586    
    109.2361    
    111.6892    
    110.8918    
    113.3459    
    119.8666    
    109.3132    
     99.5854    
    100.4124    
     94.7495    
     90.7113    
     95.5911    
     95.6064    
    106.9836    
     98.0701    
    101.3310    
     99.7229    
    107.0444    
     97.3196    
     99.7685    
    107.0899    
     98.1763    
     99.0028    
     90.9088    
     88.4930    
     95.8035    
     98.2517    
    105.5709    
    101.5273    
    110.4748    
    102.3685    
     91.0289    
    103.2103    
     92.6801    
     99.9938    
    104.8789    
    109.7666    
    111.4063    
    104.1114    
    103.3143    
    105.7647    
    104.1558    
    106.6064    
    113.1208    
    104.2001    
     98.5342    
     95.3046    
     96.9410    
     96.9557    
     96.1597    
     95.3633    
     98.6222    
     93.7707    
     97.0288    
    114.0949    
    104.3611    
    109.2480    
    101.9552    
     98.7240    
     97.9272    
     97.1305    
     98.7675    
    102.8388    
    112.5995    
    106.9272    
    102.0708    
    101.2735    
    106.1581    
     97.2457    
    111.8729    
    101.3308    
     93.2348    
    101.3594    
    103.8084    
    103.8227    
     97.3457    
     93.3061    
     88.4578    
     95.7666    
    102.2706    
     84.4512    
     99.0533    
     96.6343    
     93.4052    
     99.9070    
    107.2262    
    107.2402    
     94.2718    
     90.2337    
     96.7327    
     98.3686    
    101.6279    
     97.5853    
     82.2054    
    100.8582    
    103.3066    
    108.1923    
     96.8443    
    103.3483    
     96.0610    
     89.5905    
     91.2252    
     92.8597    
     93.6842    
    102.6200    
     89.6596    
     93.7255    
     94.5496    
    101.0518    
     90.5249    
    106.7610    
     96.2262    
    101.1065    
     90.5796    
     94.6454    
     90.6069    
     89.8101    
     92.2546    
     83.3585    
     84.1818    
     94.7269    
     95.5513    
     89.8915    
     93.9572    
     98.0245    
    105.3412    
     99.6740    
     88.3389    
     94.8348    
     86.7457    
     92.4300    
     94.0647    
     88.4060    
     85.9898    
     90.0527    
     95.7394    
    105.4885    
     97.3880    
    103.8914    
    109.5883    
     94.9950    
     86.9056    
     83.6802    
     78.0291    
     79.6605    
     90.1986    
     91.8326    
     99.9535    
     99.1554    
     84.5821    
     84.5952    
     96.7618    
     93.5320    
    100.8436    
     93.5582    
     93.5713    
     93.5843    
     84.6867    
     86.3193    
     92.0027    
     89.5846    
     87.1677    
     89.6105    
     91.2441    
     93.6881    
     86.4101    
     98.5785    
    100.2140    
     84.8291    
     93.7526    
     84.8549    
     93.7783    
     84.8805    
     87.3224    
     82.4779    
     87.3479    
     85.7414    
     93.0444    
     76.8658    
     93.8805    
     91.4621    
    103.6386    
     93.9186    
     93.1207    
     89.8922    
     96.3885    
     86.6782    
     72.9372    
     78.6099    
     85.0965    
     84.2994    
     88.3607    
     85.1342    
     81.1002    
     75.4504    
     77.0804    
     87.6133    
     88.4358    
     84.3996    
    103.0534    
     95.7658    
     94.9679    
     87.6881    
     82.0338    
     84.4742    
     98.2607    
    107.1990    
    108.0229    
     99.9197    
    109.6721    
     99.9444    
    100.7680    
     82.1449    
     96.7374    
     88.6462    
    104.0628    
     93.5317    
     99.2191    
     94.3667    
    100.8661    
     96.0122    
     91.1619    
    102.5250    
     92.8070    
     96.8717    
    104.1847    
     95.2748    
    102.5857    
    106.6560    
    106.6681    
     92.0813    
     88.8530    
     87.2456    
     76.7379    
     94.5606    
     95.3833    
     88.9131    
     88.9251    
     88.9371    
     96.2416    
    108.4239    
     90.5927    
     95.4671    
     90.6166    
     87.3892    
     81.7350    
     96.3250    
     89.0443    
     77.7258    
     87.4485    
     86.6505    
     86.6624    
     84.2456    
    102.0853    
     95.6093    
     93.1897    
    107.8018    
     97.2657    
     90.7938    
     85.1371    
     85.9584    
     89.2092    
     95.7031    
     88.4225    
     96.5368    
     97.3593    
     92.5079    
     99.8152    
     96.5833    
     89.3024    
     95.7962    
     86.0865    
     90.1472    
     91.7787    
    106.3876    
     96.6643    
     91.0031    
     87.7753    
     84.5485    
     98.3322    
    104.8335    
     99.1662    
     92.6926    
     93.5145    
     90.2852    
     96.7790    
     90.3080    
     85.4606    
    103.3017    
     91.1519    
     96.8360    
     91.9848    
     79.0446    
     89.5774    
     88.7788    
     70.1870    
     80.7074    
     88.0032    
     84.7761    
     83.1685    
     91.2763    
     78.3373    
     88.8689    
     94.5511    
     87.2721    
     92.1426    
     85.6750    
     86.4959    
     97.0386    
     90.5673    
     99.4938    
     64.7135    
     76.0346    
     77.6625    
     84.9550    
     79.3024    
     99.5604    
     94.7070    
    101.2044    
     87.4389    
     92.3093    
     84.2229    
     92.3313    
     90.7223    
     95.5948    
     89.1242    
     77.8060    
     85.9074    
     81.0631    
     77.8388    
     71.3834    
     85.9511    
     82.7252    
     94.8826    
     89.2225    
    103.0134    
     74.6812    
     86.0164    
    102.2346    
     99.0012    
     93.3380    
     81.2045    
     87.6899    
     87.7007    
     91.7606    
     90.1515    
     90.1623    
     89.3630    
     81.2798    
     87.7652    
     92.6353    
     85.3581    
     91.8464    
     94.2882    
     87.8187    
     88.6392    
     76.5132    
     91.0900    
     81.3866    
     88.6817    
     81.4079    
     74.9493    
     78.1938    
     70.9305    
     87.9249    
     90.3647    
     86.3266    
     90.3858    
     82.3016    
     87.9776    
     76.6613    
     84.7606    
     86.3897    
     87.2098    
     76.7033    
     88.0405    
     84.0035    
     81.5867    
     75.1280    
     84.0348    
     85.6641    
     80.8193    
     80.8297    
     84.8858    
     83.2779    
     97.0561    
     87.3452    
     90.5945    
     94.6558    
     86.5665    
     74.4445    
     80.1143    
     78.5069    
     82.5616    
     88.2374    
     72.0714    
     79.3568    
     82.6026    
     80.9947    
     84.2412    
     82.6333    
     75.3652    
     81.8446    
     96.4302    
     85.1016    
     77.8311    
     69.7603    
     79.4689    
     96.4810    
     90.0096    
     82.7349    
     94.8907    
     84.3732    
     72.2545    
     74.6891    
     77.1241    
     86.0324    
     76.3357    
     80.3888    
     86.8717    
     88.5011    
     89.3210    
     95.0013    
     78.0125    
     86.9217    
     82.8856    
     69.9614    
     69.1641    
     66.7513    
     69.1840    
     75.6571    
     66.7811    
     78.9108    
     84.5832    
     93.4999    
     90.2697    
     80.5680    
     84.6227    
     85.4420    
     78.1712    
     81.4160    
     77.3827    
     72.5430    
     87.1097    
     85.5009    
     86.3202    
     87.1391    
     76.6330    
     70.9863    
     83.9316    
     79.0877    
     88.8073    
     83.1516    
     83.1613    
     87.2171    
     88.0364    
     90.4752    
     84.8181    
     82.4006    
     82.4103    
     72.7183    
     85.6662    
     60.6286    
     81.6398    
     75.1815    
     71.9589    
     69.5454    
     70.3623    
     71.1798    
     71.9973    
     88.9907    
     94.6700    
     80.9176    
     76.8840    
     94.6986    
     85.8004    
     83.3825    
     71.2657    
     78.5483    
     89.8863    
     86.6574    
     88.2857    
     72.1211    
     73.7462    
     77.7970    
     70.5336    
     85.9047    
     81.8684    
     71.3697    
     81.0787    
     89.1803    
     84.3335    
     76.2553    
     65.7645    
     92.4572    
     88.4174    
     69.0219    
     80.3448    
     78.7366    
     70.6649    
     77.1385    
     82.8085    
     85.2450    
     77.1664    
     73.1348    
     74.7604    
     79.6197    
     79.6289    
     73.9799    
     81.2651    
     78.0398    
     82.9011    
     81.2928    
     77.2589    
     64.3450    
     77.2773    
     76.4780    
     73.2547    
     60.3481    
     68.4271    
     60.3664    
     70.0606    
     57.9654    
     57.1681    
     76.5512    
     80.6030    
     72.5293    
     76.5785    
     74.1632    
     80.6393    
     79.8396    
     79.8486    
     76.6238    
     70.9770    
     66.9490    
     59.6960    
     68.5815    
     68.5905    
     67.7920    
     67.8010    
     75.8881    
     77.5134    
     76.7139    
     55.7369    
     71.0760    
     73.5083    
     79.9836    
     84.0369    
     92.9507    
     72.7364    
     80.0193    
     69.5235    
     70.3400    
     80.8548    
     81.6725    
     62.2946    
     85.7350    
     76.8475    
     72.0084    
     65.5577    
     72.8340    
     71.2270    
     72.8517    
     75.2843    
     90.6629    
     93.1013    
     99.5925    
     85.0232    
    102.0430    
    100.4297    
     93.1451    
     85.8671    
     93.9723    
     95.6017    
     89.1309    
     80.2395    
     77.0143    
     95.6365    
     83.5009    
     85.9368    
     88.3735    
     89.1918    
    100.5429    
    102.1736    
     88.4081    
    101.3799    
    108.6896    
    103.8300    
    118.4531    
    116.8367    
    112.7836    
     97.3781    
     87.6679    
    105.5044    
    110.3822    
     94.1713    
     90.9406    
     94.9986    
     95.8176    
    107.9899    
    107.9985    
    108.0070    
    102.3367    
    113.7071    
    121.0284    
    124.2895    
    132.4353    
    124.3065    
    125.9420    
    120.2583    
    118.6409    
    123.5269    
    117.0328    
    118.6662    
    130.8750    
    129.2553    
    111.3810    
    134.9715    
    136.6087    
    137.4319    
    134.1821    
    144.7843    
    149.6875    
    145.6167    
    148.0721    
    158.6936    
    153.8018    
    170.9749    
    157.9020    
    155.4601    
    157.1017    
    166.1002    
    157.9353    
    159.5773    
    159.5856    
    153.0600    
    153.0683    
    154.7097    
    160.4359    
    165.3485    
    174.3566    
    165.3650    
    173.5544    
    187.4913    
    196.5257    
    193.2504    
    194.8999    
    199.8353    
    220.4062    
    222.8856    
    218.7752    
    228.6714    
    243.5355    
    250.9822    
    260.9204    
    258.4449    
    285.8184    
    276.6938    
    297.4739    
    304.9737    
    332.5155    
    359.3185    
    370.2390    
    413.2099    
    430.1330    
    455.5837    
    499.8961    
    528.1550    
    564.2710    
    628.3188    
    671.9048    
    738.6343    
    839.8370    
    952.3761    
   1115.5625    
   1323.1741    
   1600.5565    
   1975.1294    
   2430.5979    
   2839.1809    
   3040.6753    
   2909.2864    
   2515.9519    
   2039.7903    
   1628.3284    
   1355.7023    
   1145.3691    
    998.8839    
    887.4741    
    806.0906    
    768.8257    
    737.9122    
    710.6368    
    712.4022    
    698.3633    
    704.5134    
    713.3043    
    719.4663    
    752.9705    
    790.1729    
    853.4747    
    939.9113    
   1069.5923    
   1179.0675    
   1359.6787    
   1523.1499    
   1693.2166    
   1837.5691    
   1919.5426    
   1923.6721    
   1866.1803    
   1806.0751    
   1713.2875    
   1620.6289    
   1531.0459    
   1472.5557    
   1416.4403    
   1377.0236    
   1311.1415    
   1258.0909    
   1223.2444    
   1194.1729    
   1168.0107    
   1151.2423    
   1157.7697    
   1169.8998    
   1166.1753    
   1166.1830    
   1182.0647    
   1208.2911    
   1246.8538    
   1281.8242    
   1303.6470    
   1317.9152    
   1327.4454    
   1317.9304    
   1330.3196    
   1337.9565    
   1332.2411    
   1361.8627    
   1360.9131    
   1366.6648    
   1380.0925    
   1398.3516    
   1410.8719    
   1422.4486    
   1423.4211    
   1449.5262    
   1476.6932    
   1495.1862    
   1502.9905    
   1505.9237    
   1500.0809    
   1516.6765    
   1514.7308    
   1523.5325    
   1513.7692    
   1524.5254    
   1549.0186    
   1588.3683    
   1602.1937    
   1690.6373    
   1756.8987    
   1853.2974    
   1944.7322    
   2066.6309    
   2120.3889    
   2183.0564    
   2278.5745    
   2361.1038    
   2441.2292    
   2528.9026    
   2647.0173    
   2768.1497    
   2901.7893    
   3073.7126    
   3232.4558    
   3433.4666    
   3624.4551    
   3836.2649    
   4041.8833    
   4251.8232    
   4518.3291    
   4766.0059    
   5090.5366    
   5431.1958    
   5825.6685    
   6274.5938    
   6763.4243    
   7298.4434    
   7885.3276    
   8494.4189    
   9170.0332    
   9953.1123    
  10816.3564    
  11855.0059    
  13009.6152    
  14414.4346    
  15850.2461    
  17493.1504    
  19251.8398    
  20928.5293    
  22772.2852    
  24740.3887    
  26753.3613    
  28723.8418    
  30815.0566    
  32579.1641    
  34128.8711    
  35041.1328    
  35204.4375    
  34881.2891    
  34346.8945    
  34200.8789    
  34571.3477    
  35986.1602    
  37960.0273    
  38839.5469    
  36960.9805    
  32016.5469    
  26204.3457    
  21210.8789    
  17095.4414    
  14019.2793    
  11836.1797    
  10170.0430    
   8912.4160    
   7992.5552    
   7252.8442    
   6695.7939    
   6267.5947    
   5940.5664    
   5718.2222    
   5576.8662    
   5467.6187    
   5346.9702    
   5137.9746    
   4875.0605    
   4537.6113    
   4204.7749    
   3954.2820    
   3706.5752    
   3504.6731    
   3341.4641    
   3202.3938    
   3062.2334    
   2934.0251    
   2824.1726    
   2697.6069    
   2601.2332    
   2497.1709    
   2405.4883    
   2286.7412    
   2197.5508    
   2139.0225    
   2072.5298    
   2014.9546    
   1965.0618    
   1892.8817    
   1860.1160    
   1804.1230    
   1786.9043    
   1730.4420    
   1694.3679    
   1699.3761    
   1661.4574    
   1672.4232    
   1661.4712    
   1676.4260    
   1671.4473    
   1702.4194    
   1720.4644    
   1736.5408    
   1775.8615    
   1798.1348    
   1860.2260    
   1953.8031    
   2061.1304    
   2219.1204    
   2471.8513    
   2734.4319    
   3006.4180    
   3217.3049    
   3305.8037    
   3308.2832    
   3346.7236    
   3402.8684    
   3468.2681    
   3568.7112    
   3692.5828    
   3813.2200    
   3911.6663    
   4029.0620    
   4072.7068    
   4078.1863    
   4061.7871    
   3981.6445    
   3854.3503    
   3722.6223    
   3576.4678    
   3426.7913    
   3302.2175    
   3174.7927    
   3083.0107    
   3012.5171    
   2958.0085    
   2921.4963    
   2894.5210    
   2837.3628    
   2799.1116    
   2774.8723    
   2704.8862    
   2607.2979    
   2488.7134    
   2330.5264    
   2173.4382    
   1988.2915    
   1805.5233    
   1622.0973    
   1469.1604    
   1303.0825    
   1153.5840    
   1035.3373    
    933.3614    
    846.1375    
    771.4059    
    692.1436    
    643.2413    
    597.2480    
    544.6539    
    490.7146    
    470.2711    
    422.7736    
    395.7678    
    365.4998    
    328.6671    
    322.8294    
    311.1608    
    305.3365    
    298.6845    
    280.4106    
    267.1501    
    263.8434    
    241.5233    
    232.4526    
    197.9006    
    202.8343    
    188.8884    
    193.8162    
    191.3616    
    182.3507    
    157.8190    
    179.0872    
    164.3674    
    154.5725    
    149.6825    
    158.6676    
    161.9416    
    169.3055    
    150.5242    
    160.3271    
    152.1691    
    151.3594    
    147.2871    
    135.0709    
    138.3348    
    133.4557    
    148.1283    
    129.3994    
    131.8468    
    113.9705    
    118.0372    
    104.2463    
     98.5787    
     96.9644    
    110.7552    
    114.0086    
    100.2246    
    100.2309    
     96.1864    
    101.0542    
    108.3590    
     82.4474    
     89.7343    
     91.3592    
    105.1397    
    104.3349    
     89.7595    
     80.0600    
     83.3002    
     78.4564    
     82.5040    
     85.7452    
     79.2835    
     84.1404    
     74.4481    
     51.0676    
     74.4606    
     80.9312    
     68.0143    
     63.1802    
     60.7675    
     59.9674    
     59.9736    
     55.9505    
     42.2716    
     48.7148    
     47.1115    
     51.9477    
     53.5644    
     60.8234    
     56.7993    
     76.1696    
     59.2299    
     68.9145    
     61.6607    
     52.8026    
     35.9149    
     52.8149    
     62.4913    
     27.9015    
     35.9395    
     43.9856    
     48.0147    
     34.3507    
     48.0269    
     35.9702    
     39.9950    
     47.2408    
     49.6615    
     38.4057    
     50.4789    
     44.8514    
     60.1583    
     69.0371    
     72.2723    
     40.0498    
     35.2336    
     33.6326    
     48.9173    
     42.4864    
     56.9830    
     68.2785    
     68.2846    
     57.8071    
     44.9303    
     42.5227    
     69.9232    
     78.8133    
     57.8373    
     53.8148    
     54.6264    
     53.8268    
     34.5267    
     49.0078    
     42.5769    
     47.4103    
     38.5690    
     42.5949    
     57.8973    
     47.4343    
     63.5525    
     76.4734    
     61.1455    
     77.2929    
     73.2605    
     61.9698    
     65.2017    
     66.0140    
     58.7630    
     66.8328    
     49.1093    
     47.5057    
     50.7315    
     50.7374    
     40.2838    
     41.8981    
     49.1448    
     45.1274    
     55.5990    
     43.5300    
     55.6108    
     50.7846    
     54.8169    
     37.1215    
     56.4401    
     66.1204    
     65.3199    
