  11100 11  1   BR92     POSU   BMW  .000 U S1 022192 00.01   1        
  PROGRAM LAMBDA-9   VERSION 02.31                                     
  USER BMW DATE & TIME  1992 02 24 10.02 10.86    4.3900    295K S     
 AU1 TM 300     0     0 YLF              .320000 -  .740000 .00020     
 FILE NAME                                ON PC = BR92.DX              
 NO_POINTS  =  2101.    pts   DATA_INTV =  .000200 ˆm                  
 MIN_LAMBDA =   .320000 ˆm     MIN_DATA =    .23220                    
 MAX_LAMBDA =   .740000 ˆm     MAX_DATA =    .94230                    
 SCANSPEED  = 15.000000 NM/MIN SLITWIDTH=   .40000 NM                  
  RESP TIME =  1.0      sec SENSITIVITY = 2          DATE=92/02/21     
 HORIZONTAL POL. (E PERPENDICULAR TO C-AXIS)                           
  This spectra is part of Database LASERS
 Database LASERS was created by Pat Cross working 
 at NASA Langley Research Center, Internal Operations Group,
 Aerospace Electronics Systems Division, Remote Sensing 
 Technology Branch. phone:(757)864-1633   fax:(757)864-7894 
     e-mail p.l.cross@larc.nasa.gov 
     homepage http://aesd.larc.nasa.gov/laser/dbmain.htm
  EOH     (1X,F11.4)                                                   
  2101.         
    197.7610    
    211.9342    
    182.1545    
    191.3264    
    190.5629    
    173.2534    
    216.4129    
    186.6163    
    184.1976    
    194.1995    
    181.8438    
    186.0456    
    200.1942    
    198.5997    
    189.5485    
    186.3001    
    190.5031    
    190.5662    
    193.1147    
    185.7247    
    188.2708    
    189.9898    
    190.8801    
    174.3966    
    191.8332    
    190.2391    
    183.6789    
    186.2233    
    176.3594    
    197.1138    
    174.8297    
    201.3822    
    204.7614    
    203.1631    
    188.3081    
    185.0588    
    174.3695    
    185.1801    
    196.8342    
    175.3774    
    182.0519    
    187.9040    
    171.4266    
    204.5969    
    190.5672    
    198.9115    
    179.1028    
    169.2473    
    184.1835    
    163.5881    
    183.4742    
    171.1354    
    196.0104    
    209.3379    
    211.8868    
    176.3264    
    182.1717    
    190.5047    
    193.8752    
    177.3855    
    203.9373    
    187.4251    
    175.9055    
    185.0579    
    175.1939    
    171.9474    
    181.9211    
    210.1466    
    200.2496    
    187.0554    
    186.2844    
    176.4185    
    181.4348    
    181.4911    
    203.0757    
    184.9112    
    207.3352    
    167.6714    
    187.5613    
    186.7893    
    198.4372    
    182.7643    
    172.0771    
    161.4050    
    174.6650    
    183.8120    
    193.7980    
    178.1346    
    191.4230    
    183.2038    
    203.1312    
    175.8739    
    164.3711    
    197.4924    
    180.9946    
    157.1126    
    195.9970    
    196.0507    
    177.0771    
    182.0899    
    162.3270    
    185.5044    
    193.0051    
    167.4356    
    171.6151    
    176.6235    
    170.8956    
    170.9482    
    179.2602    
    180.9655    
    189.2885    
    199.2768    
    204.3023    
    192.7552    
    177.0947    
    182.1048    
    189.6005    
    183.8620    
    178.9537    
    181.4844    
    195.6011    
    203.9379    
    191.5638    
    181.6891    
    178.4344    
    166.9270    
    183.4953    
    179.4131    
    175.3335    
    179.5141    
    206.0527    
    201.9583    
    170.5808    
    187.9825    
    177.2865    
    183.9477    
    183.1706    
    185.7007    
    201.4787    
    204.0145    
    223.9842    
    212.4069    
    224.0827    
    240.7725    
    223.3501    
    243.3696    
    243.4185    
    244.3006    
    256.0244    
    271.9467    
    278.6883    
    286.2743    
    308.1393    
    329.2243    
    370.6742    
    408.0929    
    442.2746    
    471.4568    
    516.2812    
    556.1599    
    631.2396    
    696.4482    
    765.7904    
    813.2857    
    821.4194    
    852.0947    
    864.7892    
    872.0729    
    883.8937    
    897.5490    
    934.0044    
    994.5093    
   1074.0651    
   1198.7358    
   1308.2136    
   1467.0995    
   1699.6943    
   1943.8040    
   2250.0786    
   2620.3181    
   3168.2708    
   3670.6953    
   3824.0337    
   3808.0769    
   4005.1440    
   4112.5815    
   4061.4951    
   4101.5874    
   4220.2427    
   3907.5698    
   2990.8259    
   2127.9727    
   1672.2167    
   1416.2212    
   1256.5891    
   1197.8462    
   1179.9657    
   1241.5078    
   1374.7583    
   1437.9036    
   1329.5438    
   1196.2234    
   1131.3894    
   1184.0450    
   1277.0466    
   1431.3466    
   1647.7413    
   1884.9434    
   1975.4734    
   1862.3184    
   1655.9366    
   1440.3785    
   1231.7219    
   1061.0442    
    866.0432    
    716.5934    
    574.3784    
    464.7321    
    418.6114    
    334.7433    
    305.3411    
    282.7464    
    266.0643    
    271.9561    
    266.9840    
    236.1792    
    222.9205    
    200.5706    
    209.7274    
    213.0860    
    194.0741    
    199.9099    
    194.1576    
    150.4734    
    173.5840    
    168.6763    
    172.0164    
    168.7590    
    165.5025    
    158.9524    
    145.0063    
    132.7270    
    158.2518    
    164.8832    
    150.1036    
    155.0811    
    134.5723    
    136.2551    
    160.1433    
    146.1946    
    151.9919    
    127.3906    
    151.2501    
    175.1846    
    138.1792    
    122.6319    
    141.5448    
    124.3513    
    142.4463    
    163.8791    
    141.7039    
    136.8158    
    167.2946    
    152.5104    
    122.9889    
    128.7672    
    141.1188    
    130.4863    
    165.8820    
    131.3850    
    146.2060    
    123.2627    
    123.3016    
    140.5706    
    188.4001    
    179.3517    
    144.7943    
    125.1343    
    139.1206    
    116.1996    
    155.6398    
    161.4412    
    162.3027    
    154.9312    
    145.9225    
    143.4952    
    154.2221    
    123.8762    
    146.0741    
    131.3314    
    107.6165    
    156.8795    
    156.0943    
    172.6095    
    147.9432    
    134.0177    
    160.3596    
    132.4513    
    138.2336    
    143.1983    
    157.2149    
    152.3151    
    157.2887    
    141.7033    
    142.5611    
    145.8845    
    134.4241    
    139.3857    
    141.0649    
    146.0307    
    156.7589    
    162.5584    
    162.5947    
    156.8677    
    161.0196    
    162.7031    
    148.7500    
    157.8346    
    150.4665    
    149.6800    
    143.9625    
    142.3555    
    131.7202    
    153.9350    
    133.4322    
    130.1867    
    137.6061    
    147.4984    
    144.2466    
    142.6391    
    145.1388    
    139.4244    
    134.5345    
    137.8523    
    141.9929    
    154.3575    
    144.5269    
    151.1372    
    123.2652    
    145.4528    
    143.8439    
    131.5661    
    138.1647    
    132.4553    
    129.2094    
    151.4133    
    149.8029    
    139.1573    
    144.1187    
    136.7632    
    132.6947    
    159.0220    
    145.8981    
    122.1409    
    141.0370    
    145.9995    
    132.8977    
    126.3721    
    132.9649    
    136.2802    
    146.1674    
    156.0669    
    152.8100    
    136.4137    
    141.3720    
    137.3010    
    123.3948    
    128.3450    
    132.4774    
    135.7917    
    136.6454    
    154.7530    
    138.3522    
    140.0270    
    134.3152    
    140.0924    
    132.7397    
    149.1934    
    148.4039    
    120.5452    
    123.8532    
    132.9020    
    144.4256    
    139.5307    
    128.0795    
    143.7006    
    127.3240    
    140.4802    
    138.8701    
    138.0817    
    140.5760    
    146.3566    
    132.4345    
    128.3668    
    142.3448    
    144.8406    
    118.6324    
    141.6188    
    131.8039    
    116.2716    
    126.9486    
    136.8194    
    132.7495    
    145.9129    
    161.5685    
    139.4060    
    141.9002    
    134.5452    
    147.7116    
    137.8888    
    137.9197    
    128.9292    
    117.4939    
    110.1630    
    109.3759    
    127.4131    
    133.1820    
    145.5236    
    147.1969    
    129.1740    
    117.7383    
    119.4054    
    135.0045    
    115.3745    
    120.3149    
    139.1976    
    144.1533    
    123.6805    
    130.2655    
    134.3949    
    138.5269    
    136.0954    
    119.7360    
    127.1366    
    121.4330    
    128.8347    
    128.8643    
    140.3761    
    139.5852    
    124.8567    
    127.3437    
    115.9108    
    115.9401    
    108.6096    
    107.0046    
    136.5086    
    133.2570    
    142.3114    
    132.4952    
    107.1502    
    119.4465    
    116.2022    
    135.8914    
    131.8204    
    133.4888    
    111.4105    
    115.5280    
    131.1154    
    131.1441    
    133.6321    
    127.1035    
    110.7645    
    122.2466    
    105.1009    
    110.0321    
    123.9691    
    123.9974    
    124.8448    
    119.9607    
    111.8085    
    129.8447    
    127.4146    
    119.2544    
    125.0133    
    122.5846    
    120.9749    
    121.8215    
    116.9392    
    107.9729    
    115.3583    
    123.5703    
    126.8735    
    113.8057    
    100.7599    
    117.9509    
    114.7062    
    118.0058    
    109.8551    
    120.5155    
    113.9977    
    121.3882    
    123.8719    
    115.7148    
    119.8330    
    113.3157    
    114.9786    
    115.0056    
    120.7597    
    110.9711    
    117.5403    
    111.0248    
    115.9576    
    106.1756    
    102.9354    
    111.1318    
    110.3409    
    119.3636    
    113.6642    
    121.0537    
    122.7171    
    115.3795    
    110.5000    
    117.8861    
    123.6415    
    117.9388    
    117.9650    
    119.6274    
    113.9277    
    116.4072    
    125.4361    
    119.7319    
    102.5931    
    102.6191    
    125.5401    
    114.1098    
    107.5969    
    123.1614    
    124.8249    
    120.7574    
    119.1467    
    114.2644    
    102.0346    
    112.6806    
    115.9770    
    106.1944    
    107.8534    
    102.1622    
    121.8060    
    119.3764    
    122.6749    
    103.0801    
    104.7387    
     99.8654    
    111.3246    
    113.8025    
    118.7346    
    109.7656    
    126.9703    
    100.0160    
    109.8406    
    116.4057    
    103.3559    
    103.3807    
    111.5744    
    105.8800    
    122.2570    
     98.5828    
    104.3211    
    107.6126    
    110.0882    
     99.4974    
    115.0417    
    123.2473    
    108.5519    
    111.0280    
    112.6869    
     98.8279    
     94.7735    
    105.4068    
    111.9665    
    117.7142    
    123.4661    
    109.5875    
     94.9186    
     96.5741    
    100.6773    
     97.4375    
    110.5249    
    113.0007    
    118.7486    
    117.1368    
    118.7963    
    104.9263    
     92.7118    
    111.5091    
     94.3896    
    105.8379    
    114.0321    
     96.0917    
     95.2996    
    105.1155    
    104.3223    
     96.1857    
     93.7629    
    102.7601    
    109.3161    
    114.2432    
    101.1974    
     99.5888    
     96.3490    
     99.6352    
    100.4745    
    100.4976    
    113.5879    
    127.5197    
    112.8164    
    108.7542    
     94.0873    
     98.1876    
     88.4281    
    102.3134    
    112.9539    
    108.8914    
    103.1981    
    109.7535    
    102.4272    
     95.1074    
     78.0260    
     92.7070    
    105.7832    
    100.0921    
     97.6673    
    105.0341    
    108.3231    
     95.2876    
     91.2344    
     79.8559    
     95.3547    
    101.9031    
    102.7416    
    109.2963    
    110.9522    
    100.3601    
     90.5973    
     95.5100    
     92.2716    
     92.2937    
    102.9186    
     88.2633    
    104.5948    
     99.7203    
    106.2718    
     94.0553    
     79.4172    
     86.7657    
     93.3054    
    103.1153    
    104.7693    
    103.1586    
     90.1322    
     89.3395    
     82.8461    
     91.8270    
     89.4041    
     87.7961    
     98.4141    
     96.8041    
    109.8848    
    102.5575    
    105.8440    
     91.9984    
     92.0197    
     87.9670    
    100.2161    
    110.0338    
    106.7881    
    108.4423    
    113.3656    
    105.2182    
     94.6341    
     88.9508    
     96.3066    
    111.0190    
    111.0399    
    121.6893    
    129.8958    
    125.0043    
    120.1155    
    121.7727    
    117.7037    
    121.8142    
    131.6584    
    127.5846    
    139.8964    
    139.9170    
    143.2187    
    152.2693    
    144.0799    
    153.1315    
    158.0828    
    147.4242    
    149.0868    
    163.0777    
    169.6815    
    181.2363    
    175.4872    
    176.3311    
    182.9462    
    187.9166    
    192.0638    
    206.9609    
    222.7163    
    240.1658    
    256.8225    
    271.0129    
    293.5924    
    304.4988    
    333.0638    
    362.5809    
    399.8466    
    442.4140    
    496.3858    
    578.4928    
    648.3341    
    732.1091    
    827.5840    
    937.9246    
   1035.1155    
   1131.6971    
   1214.3937    
   1257.0413    
   1258.0111    
   1187.1073    
   1103.8149    
   1061.1296    
   1031.5828    
    981.9686    
    879.1633    
    759.0261    
    666.2039    
    586.6691    
    526.0546    
    477.0562    
    449.6948    
    430.0948    
    412.2451    
    402.9212    
    391.9135    
    382.6145    
    391.1041    
    399.6032    
    416.6111    
    431.9525    
    443.9102    
    480.7159    
    514.2543    
    556.5982    
    608.7676    
    685.0461    
    769.2208    
    860.6475    
    951.3627    
   1046.8694    
   1105.3209    
   1113.7245    
   1076.5498    
   1076.5685    
   1097.9514    
   1137.1381    
   1138.0919    
   1110.1091    
   1066.4655    
    979.9057    
    925.1735    
    869.9304    
    798.0787    
    710.0898    
    623.1088    
    567.4113    
    497.4955    
    470.9180    
    434.1994    
    407.8430    
    377.3468    
    358.7775    
    350.3620    
    333.5403    
    346.1848    
    339.4663    
    352.1207    
    369.0200    
    397.8218    
    433.5482    
    486.5863    
    548.6448    
    621.6901    
    631.3235    
    566.8899    
    476.3858    
    403.0573    
    364.9764    
    342.2269    
    310.3163    
    293.5839    
    265.2101    
    254.4006    
    249.4264    
    222.0460    
    219.5779    
    215.4542    
    202.2348    
    201.4263    
    199.7909    
    184.1251    
    164.3774    
    174.2712    
    169.3493    
    166.0755    
    169.3844    
    152.1381    
    150.5137    
    162.8556    
    143.1633    
    139.0814    
    140.7382    
    137.4766    
    130.9409    
    134.2338    
    138.3483    
    135.9072    
    140.8421    
    153.1677    
    149.0797    
    163.8853    
    172.9541    
    163.9197    
    141.7652    
    131.1303    
    127.0541    
    128.7079    
    114.0050    
    116.4738    
    114.0391    
    119.7775    
    106.7240    
    106.7409    
    110.0234    
    101.8793    
    110.0571    
     79.1084    
     82.3788    
     75.0773    
     83.2262    
     88.9406    
     81.6328    
     80.0224    
     93.8778    
     84.1236    
     90.6531    
     76.0240    
     75.2277    
     74.4314    
     67.1375    
     65.5301    
     81.7991    
     71.2475    
     76.1399    
     87.5451    
     94.0767    
     83.5084    
     77.8314    
     73.7835    
     72.9877    
     68.1301    
     64.8991    
     70.5991    
     77.1164    
     70.6317    
     81.2150    
     90.1838    
     79.6206    
     69.8847    
     72.3377    
     78.8563    
     71.5575    
     77.2622    
     78.9046    
     74.0431    
     80.5630    
     87.9025    
     70.8415    
     74.1073    
     66.8135    
     66.8295    
     55.4884    
     60.3694    
     57.1414    
     64.4581    
     71.7814    
     67.7368    
     79.9408    
     71.8288    
     77.5332    
     76.7364    
     70.2518    
     66.2076    
     58.9214    
     66.2390    
     70.3146    
     73.5797    
     80.9113    
     76.8618    
     77.6900    
     79.3319    
     76.9085    
     75.2982    
     72.0636    
     65.5830    
     64.7872    
     72.1101    
     72.9380    
     75.3911    
     79.4712    
     85.1807    
     81.9417    
     78.7041    
     78.7195    
     64.9257    
     64.9410    
     60.8994    
     60.1034    
     64.9868    
     66.6251    
     66.6403    
     78.8415    
     74.7923    
     69.1214    
     72.3853    
     67.5280    
     73.2280    
     68.3702    
     66.7613    
     64.3416    
     70.8514    
     76.5537    
     74.1308    
     80.6484    
     79.0373    
     73.3631    
     68.5051    
     73.3929    
     66.9110    
     61.2458    
     60.4494    
     66.9555    
     71.8422    
     83.2376    
     78.3727    
     71.8865    
     78.4022    
     77.6044    
     72.7431    
     73.5703    
     71.9600    
     67.1028    
     60.6262    
     64.6974    
     67.1467    
     76.9086    
     76.1103    
     76.9377    
     86.7116    
     76.9668    
     72.1058    
     69.6840    
     60.7717    
     63.2201    
     76.2262    
     73.8030    
     77.8809    
     77.8953    
     82.7883    
     80.3629    
     78.7509    
     78.7652    
     73.9035    
     73.9178    
     73.1195    
     76.3839    
     75.5853    
     75.5996    
     70.7398    
     80.5055    
     80.5196    
     78.9074    
     81.3608    
     86.2561    
     88.7117    
     82.2165    
     86.2983    
     70.0547    
     73.3175    
     71.7072    
     71.7212    
     78.2355    
     87.1958    
     80.7023    
     77.4644    
     70.9787    
     70.1804    
     84.0113    
     84.8383    
     72.6584    
     60.4985    
     63.7569    
     62.9593    
     67.0300    
     80.0415    
     75.9910    
     80.0691    
     67.0850    
     79.2834    
     77.6715    
     78.4982    
     79.3244    
     59.8523    
     72.8507    
     65.5578    
     71.2538    
     69.6436    
     73.7176    
     81.0460    
     85.9398    
     74.5707    
     82.7128    
     64.0436    
     59.1905    
     72.1879    
     71.3890    
     68.1548    
     67.3564    
     73.8659    
     75.5044    
     90.1573    
     80.4077    
     74.7319    
     69.8723    
     79.6345    
     75.5844    
     64.2310    
     60.1886    
     57.7697    
     52.1108    
     57.7962    
     65.1082    
     73.2396    
     74.8777    
     71.6418    
     68.4072    
     68.4203    
     67.6216    
     63.5779    
     61.9684    
     65.2264    
     59.5619    
     66.8758    
     73.3837    
     69.3368    
     65.2916    
     75.0477    
     71.8116    
     79.1371    
     68.5898    
     75.0995    
     74.2999    
     81.6277    
     67.8296    
     75.1511    
     66.2324    
     63.0000    
     71.1284    
     67.0826    
     76.0279    
     69.5432    
     68.7440    
     78.5041    
     70.3935    
     66.3475    
     72.0427    
     71.2432    
     72.0681    
     69.6450    
     69.6576    
     54.2611    
     59.1362    
     64.0149    
     78.6435    
     65.6625    
     74.6057    
     77.0556    
     77.0682    
     64.9017    
     70.5955    
     65.7378    
     51.9692    
     58.4640    
     67.3984    
     66.5992    
     63.3664    
     68.2470    
     71.5068    
     78.8310    
     85.3485    
     76.4179    
     71.5563    
     61.8312    
     71.5810    
     63.4778    
     67.5470    
     65.1251    
     67.5716    
     60.2830    
     60.2953    
     65.9851    
     78.9909    
     83.8813    
     71.7036    
     74.9645    
     69.2924    
     66.8698    
     67.6936    
     61.2159    
     46.6463    
     57.9973    
     66.1189    
     64.5085    
     63.7093    
     67.7783    
     69.4134    
     65.3681    
     77.5591    
     71.0734    
     64.5927    
     73.5334    
     58.1296    
     64.6286    
     58.9642    
     58.9761    
     57.3667    
     62.2431    
     56.5804    
     72.8165    
     60.6567    
     66.3462    
     71.2282    
     61.5032    
     72.0635    
     76.9492    
     56.6751    
     55.8764    
     55.8881    
     50.2302    
     60.7746    
     59.9755    
     55.9351    
     61.6207    
     65.6880    
     68.1339    
     71.3926    
     73.8403    
     60.0572    
     55.2063    
     52.7878    
     55.2295    
     51.1916    
     56.0630    
     52.8342    
     60.9491    
     68.2615    
     56.1092    
     71.5316    
     68.2960    
     62.6287    
     60.2073    
     66.7072    
     60.2302    
     62.6745    
     51.3411    
     50.5426    
     56.2238    
     61.9091    
     68.4104    
     64.3648    
     62.7543    
     72.5031    
     59.5338    
     61.1663    
     64.4215    
     68.4897    
     48.2389    
     64.4553    
     69.3348    
     66.9115    
     59.6240    
     47.4856    
     57.2150    
     60.4679    
     58.8581    
     77.5345    
     58.0698    
     60.5126    
     67.0122    
     60.5349    
     49.2047    
     64.6119    
     48.4178    
     54.0968    
     46.8211    
     59.7911    
     61.4234    
     63.0564    
     63.8781    
     63.0784    
     72.8269    
     63.1004    
     65.5446    
     60.6895    
     65.5665    
     57.4697    
     70.4571    
     65.5994    
     62.3660    
     53.4625    
     60.7660    
     68.0769    
     52.6852    
     64.8534    
     59.1884    
     85.1805    
     73.0014    
     76.2610    
     67.3412    
     71.4102    
     69.7972    
     66.5625    
     62.5176    
     60.9065    
     56.8652    
     56.8759    
     62.5606    
     63.3823    
     68.2602    
     57.7291    
     65.8475    
     52.8896    
     72.3615    
     66.6909    
     66.7015    
     70.7695    
     71.5920    
     64.2994    
     56.2039    
     53.7844    
     54.6051    
     58.6665    
     44.9122    
     51.3973    
     48.9793    
     60.3299    
     70.0737    
     60.3509    
     67.6601    
     54.6997    
     63.6255    
     62.8249    
     55.5407    
     52.3119    
     57.9926    
     51.5229    
     42.6321    
     47.4962    
     58.0342    
     49.9449    
     62.1074    
     76.7260    
     52.4052    
     66.1936    
     65.3926    
     66.2142    
     63.7913    
     61.3687    
     55.7062    
     44.3837    
     47.6302    
     52.4977    
     63.0418    
     63.8631    
     63.8733    
     42.0188    
     56.5983    
     61.4709    
     71.2159    
     73.6616    
     70.4244    
     72.0582    
     70.4446    
     62.3426    
     52.6299    
     49.4016    
     56.6996    
     54.2796    
     54.2896    
     40.5436    
     47.8330    
     53.5097    
     55.1399    
     66.4984    
     60.0213    
     60.0313    
     54.3698    
     61.6723    
     66.5484    
     65.7470    
     69.8139    
     61.7121    
     55.2396    
     45.5354    
     47.1637    
     55.2693    
     60.9513    
     67.4490    
     73.9517    
     66.6573    
     65.0446    
     60.1899    
     67.4982    
     53.7280    
     53.7378    
     52.1283    
     61.8600    
     58.6281    
     40.0223    
     61.8893    
     49.7487    
     42.4770    
     50.5772    
     61.9282    
     58.6963    
     48.1784    
     53.0453    
     49.0072    
     57.9246    
     66.0411    
     51.4644    
     61.1954    
     59.5837    
     62.0249    
     65.2781    
     45.0386    
     44.2397    
     38.5898    
     49.1131    
     49.9321    
     55.6096    
     57.2391    
     58.8695    
     47.5426    
     64.5631    
     62.1397    
     54.8567    
     60.5377    
     61.3579    
     58.9360    
     50.0368    
     41.1480    
     40.3489    
     50.8743    
     50.8837    
     48.4651    
     57.3813    
     54.9607    
     63.0735    
     64.7049    
     67.9589    
     67.1569    
     55.8177    
     51.7779    
     45.3133    
     55.8457    
     55.0449    
     56.6741    
     35.6504    
     27.5851    
     49.4148    
     36.4859    
     47.8152    
     59.9709    
     60.7908    
     46.2245    
     51.8987    
     64.0613    
     58.3966    
     73.8167    
     64.0890    
     57.6138    
     42.2450    
     48.7254    
     49.5440    
     48.7437    
     45.5166    
     67.3974    
     52.8186    
     64.1714    
     52.0271    
     51.2265    
     64.1987    
     60.9650    
     48.0169    
     56.1217    
     51.2719    
     43.9993    
     47.2440    
     48.0622    
     46.4529    
     44.8443    
     28.6943    
     52.9546    
     44.0625    
     52.1628    
     52.1718    
     34.3909    
     49.7614    
     61.1093    
     44.1163    
     41.6995    
     52.2255    
     50.6156    
     52.2433    
     37.6938    
     51.4514    
     39.3281    
     44.9964    
     41.7707    
     44.2053    
     36.9389    
     40.9887    
     33.7260    
     45.0495    
     49.9125    
     50.7308    
     53.9780    
     53.1770    
     53.9956    
     62.9164    
     49.9653    
     56.4515    
     66.1862    
     64.5733    
     62.1499    
     41.9203    
     42.7372    
     51.6451    
     54.0830    
     43.5720    
     49.2432    
     49.2519    
     63.8407    
     59.7968    
     58.1846    
     69.5443    
     78.4835    
     76.0556    
     58.2192    
     55.7978    
     54.1869    
     63.1075    
     46.9196    
     35.6111    
     44.5103    
     44.5189    
     41.2933    
     35.6454    
     51.0172    
     51.0257    
     45.3705    
     63.1931    
     67.2564    
     69.6986    
     59.9770    
     44.6042    
     38.9538    
     39.7706    
     43.0121    
     38.1710    
     36.5638    
     41.4208    
     41.4292    
     42.2462    
     48.7251    
     42.2631    
     44.6971    
     30.9700    
     52.8053    
     47.1488    
     63.3537    
     47.1655    
     49.6011    
     60.9471    
     61.7661    
     48.0081    
     43.9720    
     56.1195    
     45.6064    
     45.6147    
     42.3884    
     41.5882    
     35.1321    
     34.3331    
     51.3198    
     45.6644    
     52.1454    
     44.0632    
     53.7813    
     52.9798    
     65.9526    
     65.1497    
     57.8633    
     48.9662    
     51.4021    
     47.3642    
     57.0864    
     67.6318    
     40.9196    
     45.7793    
     49.0234    
     40.1362    
     58.7554    
     49.0479    
     44.2024    
     46.6367    
     51.5000    
     56.3659    
     62.8562    
     55.5721    
     66.9263    
     54.7788    
     49.9296    
     49.9377    
     54.8030    
     49.1449    
     58.0583    
     28.1522    
     45.1242    
     52.4139    
     41.0975    
     58.0984    
     50.8193    
     49.2091    
     64.6060    
     51.6528    
     63.8111    
     52.4778    
     49.2489    
     52.4937    
     48.4556    
     50.0816    
     59.8067    
     45.2438    
     46.8691    
     47.6860    
     46.0764    
     37.1926    
     40.4327    
     37.2084    
     35.6005    
     36.4162    
     46.9321    
     50.1763    
     46.9478    
     58.2885    
     68.8351    
     48.5895    
     46.1706    
     55.0805    
     49.4222    
     59.9560    
     59.9638    
     43.7832    
     39.7497    
     51.0794    
     47.0414    
     53.5232    
     45.4396    
     47.0647    
     60.8363    
     53.5541    
     65.7153    
     61.6695    
     59.2464    
     64.1166    
     64.1243    
     72.2437    
     73.0626    
     66.5802    
     61.7234    
     57.6802    
     59.3078    
     69.8554    
     65.8074    
     65.8151    
     66.6338    
     63.3982    
     57.7337    
     69.9012    
     62.6103    
     77.2214    
     68.3013    
     83.7362    
     91.8759    
     82.1257    
     88.6370    
     82.9536    
     95.1615    
     84.5945    
     84.6021    
     72.4263    
     60.2700    
     72.4413    
     85.4447    
     69.2107    
     67.5957    
     69.2257    
     72.4788    
     79.7937    
     85.4897    
     91.1900    
     88.7572    
     94.4599    
     95.2814    
     92.8474    
     94.4822    
     91.2346    
     89.6153    
     83.9312    
     98.5828    
     87.1979    
     82.3277    
     71.7787    
     89.6598    
     88.8537    
     78.2956    
     83.9903    
     92.1297    
     97.0204    
     94.5857    
    105.9964    
    119.8741    
    113.3511    
    119.8887    
    117.4462    
    115.8211    
    122.3609    
    122.3682    
    115.0268    
    128.1031    
    131.3812    
    124.8483    
    128.9427    
    137.9484    
    137.1375    
    136.3261    
    146.1606    
    163.3957    
    150.2731    
    160.1256    
    187.2729    
    202.9499    
    206.2603    
    217.8396    
    225.2956    
    256.0020    
    258.5037    
    261.8382    
    299.3787    
    333.7455    
    361.5214    
    387.7068    
    419.9271    
    435.2411    
    489.9240    
    529.4736    
    573.5636    
    623.1443    
    651.1248    
    723.2876    
    753.4149    
    788.1202    
    806.8765    
    816.7232    
    793.4935    
    773.0040    
    733.9545    
    717.1578    
    691.5887    
    666.9832    
    645.9565    
    624.1157    
    624.9955    
    595.3868    
    549.4565    
    500.3679    
    467.8201    
    460.1368    
    426.9103    
    406.5381    
    412.4834    
    409.9449    
    412.4973    
    425.2451    
    447.3862    
    469.5927    
    497.0112    
    528.8369    
    586.8026    
    651.3425    
    724.3894    
    750.0829    
    730.5955    
    690.8827    
    619.9142    
    562.5756    
    494.5064    
    454.3000    
    405.8217    
    390.5816    
    370.3068    
    369.4696    
    369.4765    
    376.2373    
    360.2134    
    360.2203    
    369.5039    
    379.6439    
    388.9513    
    397.4229    
    396.5827    
    400.8252    
    404.2222    
    402.5334    
    424.6082    
    445.8946    
    463.8225    
    480.9367    
    498.0891    
    530.7797    
    560.1501    
    577.4824    
    637.5685    
    667.3555    
    696.3785    
    730.8207    
    764.5306    
    794.8207    
    812.6973    
    827.9266    
    813.6055    
    803.7772    
    801.1039    
    784.1588    
    753.0375    
    756.5953    
    745.9537    
    754.8326    
    747.7405    
    742.4276    
    717.6581    
    740.6687    
    745.1068    
    742.4542    
    772.6555    
    765.5466    
    775.3387    
    782.4700    
    789.6075    
    792.2900    
    820.0038    
    820.9059    
    836.1514    
    837.0554    
    827.1968    
    828.0994    
    830.7954    
    837.9788    
    846.0676    
    873.0760    
    893.8497    
    921.9365    
    940.1150    
    951.0450    
    978.4305    
   1001.3282    
   1024.2952    
    994.0084    
   1007.7697    
   1025.2347    
   1052.8893    
   1051.9724    
   1075.0930    
   1109.4384    
   1144.8738    
   1191.7509    
   1237.0272    
   1264.5154    
   1326.4828    
   1378.3517    
   1427.6663    
   1469.4968    
   1530.2166    
   1614.2555    
   1692.2015    
   1802.4805    
   1914.3851    
   1988.1761    
   2074.3005    
   2157.1411    
   2262.5176    
   2389.1685    
   2507.8960    
   2677.5229    
   2841.6714    
   3083.8767    
   3371.5598    
   3690.1475    
   4123.0054    
   4694.5518    
   5408.7104    
   6358.7549    
   7522.4238    
   8850.7314    
  10091.5742    
  10655.4512    
  10329.0322    
   9418.0225    
   8434.3965    
   7693.2031    
   7221.1748    
   6969.5244    
   6895.4321    
   6901.4199    
   6899.4316    
   6883.5029    
   6780.7393    
   6531.6455    
   6141.0410    
   5614.7778    
   5055.0879    
   4503.2354    
   4043.3452    
   3728.2996    
   3467.5645    
   3315.5674    
   3232.6968    
   3147.0715    
   3055.1865    
   2911.1492    
   2742.0647    
   2573.2795    
   2414.7900    
   2270.3711    
   2126.5215    
   2002.0667    
   1908.4976    
   1811.9854    
   1751.0195    
   1666.4789    
   1606.6660    
   1548.3057    
   1492.3470    
   1435.8268    
   1372.0173    
   1324.9901    
   1300.1573    
   1236.5281    
   1221.4159    
   1192.2166    
   1164.0653    
   1144.4236    
   1119.2427    
   1115.5244    
   1121.1174    
   1131.3776    
   1123.9247    
   1149.1338    
   1192.2714    
   1259.3347    
   1330.8251    
   1414.6051    
   1499.3198    
   1616.7435    
   1685.6731    
   1731.9780    
   1753.2147    
   1719.8846    
   1712.8383    
   1698.7590    
   1724.9445    
   1754.2576    
   1802.0026    
   1821.3925    
   1868.5352    
   1947.0648    
   2030.6149    
   2085.4219    
   2213.4207    
   2332.6802    
   2446.0740    
   2553.3086    
   2633.6047    
   2626.7930    
   2606.3813    
   2544.3386    
   2523.0273    
   2518.5527    
   2529.7644    
   2536.5015    
   2530.8979    
   2483.9431    
   2417.3628    
   2348.0762    
   2295.7085    
   2237.2229    
   2184.5408    
   2103.5422    
   2019.2037    
   1939.9410    
   1855.3386    
   1731.1831    
   1645.8678    
   1556.5664    
   1472.2046    
   1396.4934    
   1354.1177    
   1290.9913    
   1238.7850    
   1178.4838    
   1133.5718    
   1089.8512    
   1045.4586    
   1012.3352    
    944.6929    
    908.3815    
    888.4865    
    831.7905    
    797.7993    
    766.6260    
    714.3605    
    666.8383    
    605.6735    
    575.2777    
    540.6871    
    489.0918    
    465.9915    
    429.3427    
    404.7275    
    381.0369    
    367.5347    
    331.3572    
    313.7546    
    305.3898    
    286.1778    
    274.5097    
    250.3908    
    261.2018    
    241.2715    
    228.0160    
    218.0907    
    201.5739    
    193.3313    
    171.9347    
    168.6530    
    178.5247    
    140.7787    
    157.9956    
    148.9810    
    144.0712    
    111.3870    
    119.5518    
    122.8237    
    136.7267    
    131.0070    
    108.9694    
    129.3830    
    120.4024    
    130.2119    
    108.9920    
    114.7063    
    126.1422    
    107.3788    
    141.6938    
    118.8093    
    105.7655    
    108.2160    
    105.7767    
     99.2660    
    100.0860    
     91.9534    
     91.1455    
     87.0860    
     80.5913    
     91.1623    
     84.6641    
     76.5480    
     79.8013    
     63.5827    
     81.4366    
     83.0671    
     78.1998    
     77.3933    
     91.2124    
     95.2857    
     87.1583    
     74.1688    
     63.6326    
     87.9875    
     79.0557    
     82.3100    
     66.8964    
     86.3840    
     69.3403    
     59.6204    
     59.6259    
     67.7348    
     57.2076    
     55.5937    
     35.3889    
     41.8559    
     30.5575    
     33.7910    
     43.4888    
     56.4362    
     39.4597    
     54.0189    
     75.0959    
     62.1272    
     50.7986    
     50.8040    
     55.6647    
     71.0662    
     57.2950    
     61.3495    
     59.7352    
     57.3113    
     62.1761    
     58.1320    
     65.4284    
     47.6230    
     34.7017    
     53.2963    
     52.4929    
     44.4108    
     39.5682    
     48.4642    
     36.3485    
     33.1248    
     32.3230    
     46.8682    
     33.9482    
     36.3753    
     65.5038    
     57.4083    
     51.7481    
     47.7091    
     59.8536    
     60.6691    
     39.6432    
     72.0283    
     59.0649    
     65.5518    
     68.8000    
     49.3694    
     55.0384    
     48.5712    
     72.0655    
     37.2683    
     46.1614    
     38.0866    
     53.4514    
     30.8320    
     21.1614    
     25.1969    
     37.3053    
     57.5252    
     59.9598    
     55.9163    
     50.2573    
     45.4109    
     51.8860    
     72.9561    
     64.8523    
     82.7082    
     45.4372    
     47.8679    
     84.3491    
     80.2926    
     68.1262    
     68.1314    
     46.2771    
     56.7994    
     73.0137    
     52.7633    
     50.3411    
