  11100 11  1 04TYLF3.SP PYLF   NYC  .000 A S1 010180 00.01   1        
  PROGRAM PE-CONVERT VERSION 02.31                                     
  USER NYC DATE & TIME  1989 12 12 10.20 57.06    4.9000    295K #     
 AU1 TM  50     0     0 YLF              .650000 -  .850000 .00050     
 FILE NAME ON PE-3600 = 004TYLF3.SP       ON PC = 004TYLF3.SP          
 NO_POINTS  =   401.    pts   DATA_INTV =  .000500 æm                  
 MIN_LAMBDA =   .650000 æm     MIN_DATA =  0.000000                    
 MAX_LAMBDA =   .850000 æm     MAX_DATA =  10406.00                    
 SCANSPEED  = .01500000 æm/min SLITWIDTH=   .00050 æmITA =   0.        
       RESP =   2.000   sec        ISMS =   0.       DATE=YY/MM/DD     
       INST = 509.                    ? =   0.                         
                                                                       
  This spectra is part of Database LASERS
 Database LASERS was created by Pat Cross working 
 at NASA Langley Research Center, Internal Operations Group,
 Aerospace Electronics Systems Division, Remote Sensing 
 Technology Branch. phone:(757)864-1633   fax:(757)864-7894 
     e-mail p.l.cross@larc.nasa.gov 
     homepage http://aesd.larc.nasa.gov/laser/dbmain.htm
  EOH     (1X,F11.4)                                                   
   401.         
    682.8156    
    745.2292    
    734.1872    
    778.8430    
    700.9833    
    707.7523    
    716.7484    
    750.2394    
    743.6502    
    841.8620    
    917.9344    
   1007.5963    
   1041.3302    
   1104.2900    
   1246.1881    
   1375.0120    
   1296.0063    
   1221.6664    
   1201.4762    
   1174.5470    
   1048.7808    
    974.8873    
    919.0158    
    992.9887    
    975.1540    
   1055.9589    
   1206.6938    
   1177.5060    
   1038.2723    
    953.1983    
    908.5376    
    937.7084    
    888.5933    
    859.6321    
    877.5915    
    884.3834    
    888.9408    
    978.5289    
   1086.2800    
   1165.0494    
   1223.6860    
   1239.5466    
   1232.8711    
   1244.2273    
   1235.2935    
   1221.8563    
   1260.2677    
   1305.4839    
   1242.3939    
   1159.1492    
   1170.4863    
   1206.5951    
   1301.3937    
   1324.0593    
   1319.6271    
   1423.7433    
   1417.0323    
   1444.2931    
   1507.8654    
   1473.9246    
   1555.7106    
   1731.0975    
   1879.7533    
   2026.6530    
   2215.6216    
   2449.5601    
   2610.1826    
   2860.4714    
   3360.8691    
   4123.1108    
   5531.0068    
   7968.8872    
  10406.1680    
   9202.3252    
   7493.4229    
   7033.6626    
   7002.5786    
   6609.9521    
   5516.6230    
   4252.3306    
   3626.2517    
   3414.1812    
   3037.9678    
   2660.5310    
   2432.5085    
   2168.8445    
   2039.9871    
   1872.5990    
   1797.1956    
   1630.7992    
   1524.0502    
   1460.6201    
   1490.1708    
   1481.1785    
   1658.5056    
   1866.3514    
   2142.0364    
   2091.4453    
   2066.2129    
   2126.1382    
   2278.5364    
   2415.2595    
   2795.2546    
   2957.2275    
   2898.5701    
   2809.5339    
   2804.9238    
   2671.7148    
   2529.6282    
   2374.1304    
   2140.7969    
   2014.3256    
   1821.8846    
   1691.8430    
   1507.7213    
   1365.1057    
   1299.6642    
   1180.2754    
   1027.5806    
    989.5541    
    842.0380    
    864.4404    
    746.3148    
    684.0820    
    630.8245    
    548.8193    
    608.7693    
    524.5932    
    584.5099    
    538.0293    
    524.8110    
    513.8115    
    480.6833    
    460.8477    
    514.0277    
    438.8855    
    458.8515    
    458.9231    
    496.6039    
    516.5977    
    498.9576    
    456.9993    
    399.6199    
    443.8743    
    421.8486    
    402.0405    
    470.6212    
    404.3899    
    475.1838    
    490.7413    
    435.5272    
    451.0693    
    424.6168    
    437.9441    
    431.3855    
    382.8706    
    420.4753    
    486.8712    
    407.3616    
    467.1019    
    361.1527    
    370.0446    
    385.5603    
    462.9525    
    414.3998    
    429.9319    
    443.2590    
    476.4948    
    472.1407    
    361.7664    
    405.9744    
    357.4892    
    342.1203    
    368.6526    
    441.5914    
    457.1297    
    452.7768    
    455.0547    
    366.7807    
    399.9523    
    322.8163    
    422.1683    
    362.6363    
    371.5256    
    413.5325    
    387.1047    
    384.9630    
    438.0331    
    424.8418    
    385.1598    
    323.4749    
    387.4979    
    286.1585    
    378.7989    
    498.2005    
    509.3344    
    454.0917    
    363.6168    
    465.2752    
    385.8086    
    370.4265    
    405.8059    
    434.5851    
    520.9159    
    481.1423    
    432.5668    
    432.6304    
    452.5855    
    470.3381    
    274.0423    
    419.6293    
    505.9291    
    486.0748    
    468.4419    
    486.2006    
    477.4131    
    395.7180    
    420.0692    
    444.4375    
    493.1522    
    466.6679    
    451.2536    
    570.8566    
    477.9114    
    590.9388    
    588.7822    
    704.3412    
    644.3931    
    531.3417    
    571.2881    
    651.2390    
    691.3051    
    787.0891    
    760.4150    
    671.4806    
    834.1043    
    742.7827    
    898.9816    
    816.4366    
    832.1121    
    905.8662    
    894.7527    
    926.1089    
    964.2073    
   1085.3180    
    917.3455    
   1069.7253    
   1191.1489    
    973.4565    
   1056.4388    
   1146.3356    
   1204.8933    
   1189.1970    
   1211.7679    
   1385.5969    
   1333.6748    
   1381.1909    
   1551.2034    
   1664.9579    
   1744.7922    
   1920.9109    
   2081.6831    
   2437.5554    
   2812.9502    
   3024.3384    
   3170.6165    
   3180.1245    
   3291.4019    
   3557.7290    
   3859.4246    
   4204.5376    
   4584.3823    
   4535.5488    
   4292.0391    
   3912.6069    
   3737.4063    
   3747.0454    
   3864.6875    
   4175.9258    
   4435.9116    
   4872.0698    
   5114.2305    
   5015.2959    
   4756.6328    
   4653.6602    
   4668.4180    
   4901.9741    
   5035.3525    
   4948.9453    
   4779.0806    
   4612.3652    
   4227.5405    
   3690.4744    
   3233.6746    
   2948.4209    
   2744.5615    
   2606.9070    
   2247.3799    
   2111.3928    
   1902.4999    
   1861.3525    
   1806.5331    
   1544.6738    
   1612.8933    
   1658.4536    
   1642.5728    
   1574.4132    
   1658.6174    
   1397.6990    
   1549.5947    
   1499.7311    
   1540.6233    
   1463.5714    
   1481.7554    
   1273.8031    
   1156.7546    
   1199.5558    
   1055.7939    
   1064.8201    
   1004.3377    
    892.5280    
    950.7165    
    872.5340    
    894.9255    
    819.0803    
    879.3921    
    745.6609    
    854.9387    
    747.9908    
    821.5762    
    783.7332    
    721.4435    
    630.3783    
    594.9279    
    661.5732    
    570.6442    
    477.7054    
    422.5048    
    471.1748    
    482.2864    
    228.7677    
    237.6146    
    363.1782    
    310.3377    
    405.2042    
    229.0274    
    389.8600    
    396.5310    
    273.1702    
    330.4731    
    121.7231    
    148.0900    
     56.1087    
    163.5515    
    282.2799    
     86.9167    
    284.5834    
      0.0000    
    181.3646    
    177.0265    
     32.4459    
      0.0000    
     85.0819    
     74.1832    
    157.5265    
      0.0000    
     67.7647    
     94.0952    
    153.3415    
    113.9181    
      0.0000    
      0.0000    
    160.1227    
      0.0000    
    107.5919    
      9.1454    
      0.0000    
      0.0000    
      0.0000    
     66.2240    
    138.5819    
     24.7491    
      0.0000    
    169.4453    
    136.5883    
     11.8239    
     49.0584    
    185.0107    
      0.0000    
      7.6493    
      1.1419    
      0.0000    
      3.4230    
    106.3378    
      0.0000    
      7.9415    
      0.0000    
    392.4090    
     29.9519    
    179.0067    
    214.1922    
