  11100 11  1 04TYLF8.SP PYLF   NYC  .000 A SI 010180 00.01   1        
  PROGRAM PE-CONVERT VERSION 02.31                                     
  USER NYC DATE & TIME  1989 12 12 11.31 33.18    4.9000    295K #     
 AU1 TM  50     0     0 YLF             1.100000 - 1.300000 .00100     
 FILE NAME ON PE-3600 = 004TYLF8.SP       ON PC = 004TYLF8.SP          
 NO_POINTS  =   201.    pts   DATA_INTV =  .001000 æm                  
 MIN_LAMBDA =  1.100000 æm     MIN_DATA =  0.000000                    
 MAX_LAMBDA =  1.300000 æm     MAX_DATA =  8860.500                    
 SCANSPEED  = .01500000 æm/min SLITWIDTH=   .00050 æmITA =   0.        
       RESP =   2.000   sec        ISMS =   0.       DATE=YY/MM/DD     
       INST = 509.                    ? =   0.                         
                                                                       
  This spectra is part of Database LASERS
 Database LASERS was created by Pat Cross working 
 at NASA Langley Research Center, Internal Operations Group,
 Aerospace Electronics Systems Division, Remote Sensing 
 Technology Branch. phone:(757)864-1633   fax:(757)864-7894 
     e-mail p.l.cross@larc.nasa.gov 
     homepage http://aesd.larc.nasa.gov/laser/dbmain.htm
  EOH     (1X,F11.4)                                                   
   201.         
    240.3898    
    196.5215    
    282.2766    
    341.7715    
    438.8732    
    377.1481    
    447.8194    
    282.5610    
    247.4366    
    144.3294    
    205.8159    
    243.2155    
    492.3553    
    337.9319    
    260.9696    
    234.6476    
    342.5071    
    239.1553    
    360.2470    
    173.3997    
    239.3236    
    292.1537    
    340.6429    
    367.1401    
    272.5212    
    391.5043    
    566.1683    
    396.0277    
    369.6208    
    349.8413    
    376.3439    
    363.1737    
    551.0019    
    429.4609    
    531.1920    
    385.4445    
    606.6156    
    549.0609    
    597.8539    
    489.4392    
    535.9445    
    502.8156    
    418.9187    
    544.9674    
    598.1834    
    507.4589    
    731.5140    
    485.4558    
    687.1696    
    547.5071    
    656.1896    
    634.0510    
    849.8775    
    783.0754    
    794.2666    
    758.6988    
    863.4785    
    901.4797    
   1006.6263    
   1024.5959    
   1089.6616    
   1170.5605    
   1130.1707    
   1096.5527    
   1163.9751    
   1335.2023    
   1294.6489    
   1366.9196    
   1452.8990    
   1534.5146    
   1579.9586    
   1716.4684    
   1816.8840    
   2016.1099    
   2034.5269    
   2280.9929    
   2554.5225    
   2722.3481    
   2865.0820    
   3133.1311    
   3293.8875    
   3362.6638    
   3227.7461    
   3013.2336    
   2792.8274    
   2704.0945    
   2510.8904    
   2318.6023    
   2035.2677    
   2033.0269    
   1858.9697    
   1776.8073    
   1635.6499    
   1440.6421    
   1622.1163    
   1510.9558    
   1581.3352    
   1613.1874    
   1613.2399    
   1574.6803    
   1772.7159    
   1827.5546    
   1964.8911    
   2201.6978    
   2562.9673    
   2957.9817    
   3532.7217    
   4014.3196    
   4957.8438    
   6138.9141    
   7444.2041    
   8776.3643    
   8860.4521    
   7961.3745    
   6709.2676    
   5755.1514    
   4938.5303    
   4220.1978    
   3788.9761    
   3300.6470    
   3090.4778    
   2846.2419    
   2610.4426    
   2352.8555    
   2188.9568    
   1840.2192    
   1758.0977    
   1657.9419    
   1385.9365    
   1340.8220    
   1171.9409    
   1111.3486    
    994.8586    
    914.4206    
    901.0730    
    791.8574    
    729.6032    
    740.7756    
    745.2736    
    689.7525    
    696.4669    
    663.2088    
    645.5046    
    523.6957    
    612.3394    
    552.5706    
    492.8893    
    570.3881    
    457.6417    
    409.1301    
    539.5461    
    493.1453    
    433.5565    
    497.6724    
    400.5583    
    440.3336    
    360.9828    
    436.0196    
    380.9189    
    416.2582    
    301.7348    
    363.4390    
    328.2473    
    350.3220    
    312.9430    
    352.6244    
    317.4474    
    185.6431    
    139.6466    
    247.2222    
    192.3792    
    170.4915    
     87.2892    
    157.4366    
    181.6101    
     63.3716    
     76.5484    
     30.6751    
    107.2944    
     89.8306    
      0.0000    
     43.9957    
     41.8571    
    243.5363    
     66.0151    
    144.8919    
     48.6195    
      0.0000    
     61.8416    
      0.0000    
     26.9632    
      0.0000    
      5.2149    
      0.0000    
      0.0000    
      0.0000    
    169.5613    
      0.0000    
      9.8865    
     55.8333    
    163.1854    
