  11100 12  1 ##YSAG11.S PUC001 BMW  .000 # S1 060593 00.00  04        
  PROGRAM PE-FILECONVERT MAC VERSION 1.0                               
  USER BMW DATE & TIME  1993 06 12 23.56 16.00   10.5000    295K U     
 AU1 TM  50     0     0 YSAG              .730000 -  .830000 .0001     
 FILE NAME ON IBM-PC  = YSAG11.SP         ON MAC= P12063.04            
 NO_POINTS  =  1001.    pts   DATA_INTV =  .00010 nm                   
 MIN_LAMBDA =   .730000 _m     MIN_DATA =    .53150                    
 MAX_LAMBDA =   .830000 _m     MAX_DATA =    .74280                    
 SCANSPEED  = 15.000000 nm/min SLITWIDTH=   .20000 nmITA =   0.        
       RESP =    .500  sec        ISMS =   0.       DATE=93/05/06      
       INST = 509.                    ? =   0.                         
 3:56:16  12-06-1993                                                   
  This spectra is part of Database LASERS
 Database LASERS was created by Pat Cross working 
 at NASA Langley Research Center, Internal Operations Group,
 Aerospace Electronics Systems Division, Remote Sensing 
 Technology Branch. phone:(757)864-1633   fax:(757)864-7894 
     e-mail p.l.cross@larc.nasa.gov 
     homepage http://aesd.larc.nasa.gov/laser/dbmain.htm
  EOH.(1X,F11.4)                                                       
  1001.         
    372.0936    
     92.6930    
    119.1589    
    129.7798    
     84.8705    
     71.7035    
     58.5433    
    369.6429    
    254.7650    
     61.2835    
     85.0656    
     87.7366    
      0.0001    
      3.4812    
     93.1242    
      0.0001    
      0.0001    
      0.0001    
      0.0001    
     85.3655    
     14.2332    
     85.4282    
     16.9239    
    127.7898    
    276.6151    
     80.2798    
     27.5880    
     19.7240    
     64.5436    
    122.6963    
     48.7884    
      0.0001    
     98.9939    
    128.1212    
     48.9193    
     25.2460    
     67.4453    
     72.7565    
    202.5356    
    183.9775    
    197.2843    
    176.0785    
    346.6811    
     12.3495    
      0.0001    
      0.0001    
      9.8140    
      0.0001    
     54.6444    
    280.0942    
     73.1725    
     28.3941    
    347.0026    
    160.5514    
     65.3854    
     54.8721    
    136.8065    
      0.0001    
      0.0001    
     47.0925    
    152.8293    
     78.8080    
    102.6120    
     36.6871    
      0.0001    
     68.3830    
     84.2524    
      0.0001    
      0.0001    
    187.6003    
    206.2239    
    185.0104    
    153.2138    
      0.0001    
     44.9392    
     79.2583    
    116.2824    
    153.3786    
    103.1290    
     74.1094    
    265.0969    
    129.6689    
    286.4908    
     50.5015    
     63.7165    
    153.6350    
      0.0001    
     58.5376    
      3.2757    
    174.9693    
     63.9079    
    108.8328    
     40.2467    
    143.2913    
     69.3071    
     45.6141    
    215.0321    
     19.3490    
      0.0001    
     16.7750    
     64.2257    
     61.6229    
     48.4708    
      6.3816    
    127.7566    
      0.0001    
     38.0590    
      0.0001    
    117.3014    
     77.7034    
      0.0001    
     35.5803    
    128.0092    
    120.1071    
    109.5579    
    125.4548    
    165.2187    
    210.3801    
     56.8807    
      0.0001    
     56.9513    
      0.0001    
      0.0001    
      0.0001    
     33.3601    
      0.0001    
      0.0001    
     72.9913    
      1.9120    
    165.6310    
      0.0001    
     70.4773    
    293.4188    
    336.2021    
    192.3155    
    141.9679    
    115.5331    
      0.0001    
    123.5327    
    163.2880    
     18.0716    
      0.0001    
     86.6576    
    155.4617    
    102.5697    
    174.0859    
    229.8946    
    107.9513    
    198.0644    
     97.4396    
     23.6431    
    129.2311    
    118.6802    
     55.3389    
    169.0625    
    177.0434    
    208.9429    
    124.1201    
    140.0383    
    206.3742    
     79.2971    
    214.4098    
    129.5706    
    209.1576    
    238.4402    
    103.2215    
     66.2923    
     87.4320    
    127.1109    
    188.0945    
    174.8616    
     29.5528    
    159.0138    
    452.8234    
    127.2983    
      0.0001    
     82.4291    
      0.0001    
      0.0001    
    380.4819    
    207.0192    
    297.6045    
    244.3134    
    212.4281    
    130.2485    
    106.4773    
    257.7568    
    188.6437    
    130.3696    
     64.3602    
    186.0834    
    236.6113    
    343.3748    
    210.0770    
    378.2583    
    250.0378    
    130.6188    
    282.0818    
    207.5724    
    220.8958    
    351.6511    
     14.6877    
    311.6003    
    215.6969    
     33.1986    
    287.6642    
    287.6907    
    306.4089    
    370.6476    
    287.7817    
    221.2220    
    115.2007    
    152.2845    
    309.2554    
    176.2011    
    117.9685    
    136.5161    
      0.0001    
    290.7222    
     36.2901    
    277.4456    
     52.1476    
    253.5201    
    203.0198    
    258.9100    
    171.2264    
    224.3682    
    323.0450    
    240.3901    
    288.3845    
    123.7087    
    288.4502    
      0.0001    
    192.6963    
    358.0301    
    285.8984    
    142.4174    
    272.6240    
    142.4723    
    168.9961    
    462.9388    
     71.2066    
     97.6381    
     68.6314    
    291.5027    
    350.3281    
    302.2409    
    275.5898    
    498.2158    
    358.4859    
    307.7012    
    347.8327    
    297.0786    
    417.6024    
    563.2426    
    579.5217    
    289.1972    
    398.9335    
    585.0304    
    297.2885    
    442.0058    
    396.3622    
    450.1332    
    522.9491    
    257.4404    
    531.1171    
    582.5569    
    680.3770    
    444.9354    
    361.7590    
    732.2858    
    498.8999    
    550.2479    
    677.8334    
    593.6349    
    316.4572    
    509.8373    
    343.2522    
    482.9247    
    287.2066    
    637.2372    
    678.0687    
    623.7145    
    483.0726    
    770.9655    
    475.0452    
    795.6686    
    935.9453    
    683.7213    
    853.3812    
    702.8566    
    795.8154    
    730.2000    
    980.3356    
    949.9588    
    883.8135    
    914.1445    
   1016.4543    
   1080.3390    
   1158.3960    
   1180.7800    
   1027.6584    
   1183.6300    
   1125.0310    
   1332.4670    
   1270.6010    
   1340.9850    
   1437.1150    
   1476.8580    
   1321.3500    
   1454.2102    
   1457.0770    
   1650.9731    
   1502.5693    
   1465.6760    
   1849.8210    
   1699.8721    
   1760.3280    
   1844.1180    
   1821.0034    
   1821.0283    
   1969.0883    
   2100.6931    
   1867.4400    
   1942.9700    
   2094.9133    
   2048.0650    
   2375.6760    
   2334.0780    
   2271.8370    
   2369.8083    
   2519.2041    
   2648.6390    
   2450.4110    
   2627.5740    
   2849.0690    
   2855.1980    
   2688.0790    
   2806.4840    
   2682.0842    
   2809.5861    
   2791.3480    
   2867.5870    
   2953.3371    
   2950.2950    
   2965.6670    
   3064.1982    
   3172.5532    
   2797.6374    
   2895.2973    
   2664.2622    
   2664.2890    
   2916.8054    
   2706.7000    
   2480.9230    
   2546.9104    
   2504.9330    
   2555.9800    
   2421.2661    
   2355.7653    
   2332.0244    
   2243.1730    
   2002.3470    
   2198.9410    
   2081.3760    
   2019.9521    
   2134.2560    
   1868.7021    
   1724.3591    
   1738.7760    
   1958.8460    
   1773.4040    
   1715.8450    
   1880.4641    
   1632.7033    
   1532.8061    
   1635.6263    
   1527.1670    
   1710.2700    
   1624.2620    
   1343.1080    
   1567.1782    
   1450.5992    
   1132.9093    
   1188.7841    
   1116.2400    
   1200.0283    
   1567.3460    
   1388.5001    
   1158.1870    
   1346.2111    
   1083.0050    
    988.7116    
   1052.4990    
   1119.2750    
   1152.7751    
   1276.0110    
   1119.3630    
   1222.7670    
   1248.0244    
   1058.2450    
   1150.1510    
   1150.1784    
   1119.5311    
   1189.3472    
   1189.3740    
   1237.0090    
   1192.2250    
   1097.3952    
   1072.3870    
   1103.0210    
   1256.7761    
   1147.6713    
   1089.1830    
    964.4377    
   1036.4604    
   1209.2690    
   1231.7060    
    994.9751    
    868.0911    
   1042.1473    
    805.0084    
    937.0447    
   1167.5190    
   1000.6750    
   1145.2430    
   1237.5590    
   1257.2240    
   1017.4112    
   1195.6384    
   1274.1550    
   1117.5240    
   1170.5622    
   1333.3170    
   1418.0632    
   1229.4020    
   1204.2221    
   1302.4610    
   1333.4560    
   1358.8594    
   1480.5990    
   1588.8320    
   1506.2293    
   1421.1422    
   1623.2172    
   1717.8900    
   1888.3030    
   1617.5780    
   1692.1143    
   1853.6060    
   2110.1740    
   2110.2020    
   2236.8481    
   2092.6540    
   2343.5664    
   2192.6640    
   2275.4070    
   2567.7924    
   2367.4560    
   2628.0670    
   2682.4580    
   2743.0654    
   2975.0903    
   3012.0080    
   3328.5190    
   3435.2172    
   3605.9080    
   3698.2231    
   3845.5590    
   3816.6760    
   4163.2983    
   4199.3160    
   4297.8450    
   4523.0590    
   4707.1904    
   4801.6280    
   5005.5510    
   5125.5400    
   4778.0650    
   4778.0890    
   5409.6601    
   5329.5913    
   5448.1464    
   5560.4030    
   5413.2580    
   5634.4692    
   5915.5322    
   5669.8690    
   5458.8012    
   5723.0610    
   5564.1090    
   5557.1054    
   5599.3790    
   5641.7490    
   5472.9580    
   5431.0200    
   5655.9663    
   5253.7270    
   5105.4921    
   5088.3530    
   4992.5420    
   4914.2080    
   4944.8583    
   4985.8020    
   4968.7670    
   4718.1210    
   4667.7294    
   4761.9711    
   4634.2530    
   4193.7970    
   4348.3250    
   3988.7020    
   4239.7680    
   4239.7930    
   3930.5690    
   4154.7070    
   4030.9873    
   4174.3780    
   3982.4160    
   4325.4770    
   4145.0480    
   4118.9660    
   4096.1782    
   3808.5053    
   4044.1872    
   4044.2143    
   3959.9730    
   4177.9150    
   4151.7900    
   4378.5571    
   4286.2480    
   4461.4370    
   4227.1810    
   4568.0310    
   4431.6591    
   4431.6860    
   4491.4721    
   4339.1440    
   4698.8230    
   4263.4750    
   4521.5300    
   4608.3480    
   4418.6160    
   4648.5942    
   4631.8630    
   4672.1320    
   4591.7602    
   4678.9000    
   4458.5660    
   4461.9111    
   4253.9111    
   4152.4010    
   4224.4282    
   4224.4540    
   4159.0151    
   4093.7980    
   3944.6113    
   3812.6220    
   3560.8203    
   3583.0283    
   3268.6250    
   3541.9050    
   3324.8913    
   3094.8623    
   3175.4033    
   3101.0980    
   2748.9150    
   2609.8610    
   2597.8430    
   2471.8464    
   2549.7890    
   2325.9190    
   2210.5520    
   2272.6260    
   1949.8483    
   1941.1484    
   1932.4522    
   1883.1173    
   1595.3660    
   1578.2660    
   1632.5871    
   1632.6170    
   1464.5480    
   1447.5561    
   1185.8240    
   1419.2863    
   1244.6660    
   1057.7470    
   1018.9410    
   1239.1440    
   1160.8390    
    994.0947    
    869.9935    
   1127.4460    
   1013.5530    
   1074.6250    
    911.3860    
    859.1324    
    914.1909    
    944.5547    
   1052.5313    
    848.2515    
    892.2639    
   1030.4134    
    867.5575    
   1253.5750    
    922.6749    
   1335.1530    
   1094.4180    
   1122.2890    
   1332.4170    
   1133.4852    
   1050.0634    
   1265.0053    
   1242.5910    
   1324.0990    
   1310.0472    
   1133.6360    
   1304.4731    
   1420.1744    
   1327.0400    
   1265.2120    
   1125.4080    
    953.4570    
    978.3479    
    959.0331    
   1083.7634    
   1103.2570    
    892.9314    
   1128.3750    
    906.7537    
    862.7530    
    959.2122    
   1075.6040    
    882.0797    
   1114.5950    
   1036.8140    
    840.9371    
    794.3523    
    797.1176    
    998.1251    
    846.5267    
    696.1326    
    439.0999    
    819.1653    
    813.7106    
    704.4080    
    813.7592    
    682.6705    
    503.8665    
    775.4974    
    625.6655    
    677.3263    
    690.9648    
    841.3726    
   1009.5780    
    759.2485    
    751.0743    
    794.8613    
    786.6790    
    797.6515    
    775.7801    
    871.7916    
   1018.0903    
   1227.0570    
   1336.6364    
   1241.1140    
   1073.6853    
    979.4703    
   1068.1840    
    943.6075    
    976.7823    
   1034.9512    
   1043.2973    
    990.6860    
   1076.6670    
   1283.4640    
   1174.2292    
   1076.7460    
   1062.8754    
   1046.2490    
   1303.2623    
    977.0583    
    996.4442    
   1188.3804    
    938.4712    
   1297.7631    
   1222.0310    
   1196.8680    
   1154.9900    
   1157.8060    
   1129.9430    
   1247.3740    
   1264.2301    
    993.9536    
   1068.8332    
   1085.5312    
   1093.8983    
    980.2244    
    960.9053    
   1043.9750    
    999.6636    
    806.9259    
    961.0044    
    969.3170    
    892.1259    
   1069.1093    
    763.2577    
    963.8943    
    757.8425    
    575.6458    
    826.3372    
    768.8530    
    638.0801    
    851.1111    
    594.7301    
    862.1459    
    583.9452    
    719.8462    
    812.8278    
    689.9219    
    843.0446    
    651.8867    
    812.9261    
    953.2410    
    909.1411    
    873.3879    
    856.9293    
   1011.4072    
    920.2608    
    821.3261    
    848.7808    
    917.5788    
    835.1107    
    862.5890    
   1142.1904    
    931.4608    
    970.1317    
    816.0413    
   1022.7570    
   1017.2410    
   1332.8970    
   1000.6734    
    926.1204    
   1020.1132    
   1025.6741    
    995.2407    
    868.4119    
   1025.7473    
   1162.0580    
   1034.1192    
    854.7681    
    783.5153    
    805.4466    
   1067.5123    
    882.3484    
    959.5477    
    808.2811    
   1001.0650    
    685.4313    
    912.7581    
    802.8981    
    693.6703    
    849.5679    
    945.9411    
    552.6496    
    701.9413    
    685.6290    
    550.0236    
    882.6897    
    770.2763    
    666.6803    
    827.8336    
    691.2156    
    645.0056    
    480.0486    
    604.3503    
    726.7473    
    639.6686    
    781.4346    
    303.2560    
    461.3463    
    590.9471    
    466.7791    
    402.3272    
    450.6866    
    501.8674    
    569.4087    
    338.1609    
    141.4086    
    381.0287    
    300.8487    
    539.7896    
    365.0293    
    721.6998    
    292.9473    
    626.5314    
    523.7123    
    218.4931    
    475.2395    
    583.2580    
     75.6743    
    194.7011    
    117.9479    
    354.5864    
    325.2068    
    202.7582    
    432.4009    
    290.5920    
    184.2607    
    234.7284    
    453.9989    
     81.2034    
    157.8610    
      0.0001    
      0.0001    
    218.9295    
    320.1583    
    264.1851    
    306.8554    
     44.5136    
    349.6447    
    102.5515    
     84.1076    
    395.2389    
    301.6619    
    118.4963    
     34.1597    
      2.6421    
      0.0001    
    261.8058    
    129.1865    
      0.0001    
    285.8524    
    171.6021    
    519.2165    
    203.4673    
      0.0001    
    280.6369    
     79.2127    
     39.7267    
    532.8589    
     37.1432    
      0.0001    
    105.7147    
     76.7173    
     60.9293    
    446.7868    
      0.0001    
    177.2565    
      0.0001    
    393.1943    
    315.6422    
    291.6560    
    422.7754    
      0.0001    
      0.0001    
      0.0001    
      0.0001    
    132.4914    
    243.8891    
    124.6069    
    180.2133    
     19.2296    
    156.4187    
    148.4979    
     82.4804    
    257.3529    
     45.6448    
      0.0001    
      0.0001    
      0.0001    
      0.0001    
    246.8527    
    297.4799    
      0.0001    
    191.1481    
     56.3922    
      0.0001    
     48.5357    
      0.0001    
     48.5801    
    319.0119    
    101.3484    
    345.7793    
    375.2371    
    138.4121    
    167.5506    
    241.8814    
    305.8332    
     14.6014    
      0.0001    
      0.0001    
    279.2624    
    526.0009    
    159.7912    
     12.1166    
    362.1305    
    104.3379    
      0.0001    
    370.2297    
     51.6797    
     28.0257    
    175.8688    
    104.4761    
      0.0001    
     20.2264    
    178.6076    
     20.2775    
    131.0121    
    154.8391    
    210.5270    
    102.0161    
    131.1001    
     75.6903    
    618.4750    
      9.9481    
    253.1864    
    287.8359    
    258.5624    
    274.5567    
     52.1385    
     57.4250    
      0.0001    
    208.1762    
    128.7316    
     39.0908    
    152.5820    
    365.5200    
      0.0001    
    229.5580    
      7.6605    
    126.2491    
    296.1792    
      0.0001    
    269.5699    
    126.3405    
      2.5524    
      0.0001    
    227.1025    
    208.5389    
      0.0001    
      0.0001    
     42.1092    
     76.3731    
     73.7583    
    269.8245    
    105.4590    
      0.0001    
      0.0001    
    288.5597    
    126.6800    
    142.5661    
      0.0001    
    100.3372    
     18.7217    
      0.0001    
      0.0001    
      0.0001    
      0.0001    
      0.0001    
     95.2213    
      0.0001    
      0.0001    
      0.0001    
    286.2384    
    203.8150    
      0.0001    
      0.0001    
      0.0001    
      0.0001    
     26.9649    
     55.9253    
      0.0001    
      0.0001    
      0.0001    
     27.0798    
      0.0001    
    156.3832    
     61.3530    
    127.3303    
     37.7108    
     56.1542    
    140.6205    
      0.0001    
      0.0001    
     14.1594    
      0.0001    
    324.1016    
      0.0001    
      0.0001    
      0.0001    
    326.8618    
    257.5716    
     88.0479    
      0.0001    
     96.0041    
      0.0001    
      0.0001    
    380.5063    
      0.0001    
