  11100 12  1 ##YSAG10.S PUC001 BMW  .000 # S1 060593 00.00  03        
  PROGRAM PE-FILECONVERT MAC VERSION 1.0                               
  USER BMW DATE & TIME  1993 06 12 23.54 10.00   10.5000    295K U     
 AU1 TM  50     0     0 YSAG              .630000 -  .730000 .0001     
 FILE NAME ON IBM-PC  = YSAG10.SP         ON MAC= P12063.03            
 NO_POINTS  =  1001.    pts   DATA_INTV =  .00010 nm                   
 MIN_LAMBDA =   .630000 _m     MIN_DATA =    .20780                    
 MAX_LAMBDA =   .730000 _m     MAX_DATA =    .72860                    
 SCANSPEED  = 15.000000 nm/min SLITWIDTH=   .20000 nmITA =   0.        
       RESP =    .500  sec        ISMS =   0.       DATE=93/05/06      
       INST = 509.                    ? =   0.                         
 3:54:10  12-06-1993                                                   
  This spectra is part of Database LASERS
 Database LASERS was created by Pat Cross working 
 at NASA Langley Research Center, Internal Operations Group,
 Aerospace Electronics Systems Division, Remote Sensing 
 Technology Branch. phone:(757)864-1633   fax:(757)864-7894 
     e-mail p.l.cross@larc.nasa.gov 
     homepage http://aesd.larc.nasa.gov/laser/dbmain.htm
  EOH.(1X,F11.4)                                                       
  1001.         
    340.4954    
    238.6333    
    400.5450    
    341.8062    
    353.3928    
    301.5131    
    440.2594    
    314.6265    
    292.8562    
    145.1525    
    269.3546    
    354.2025    
    275.8018    
    260.7491    
    328.8265    
    227.3955    
    143.0248    
    286.9104    
    265.2362    
    227.0336    
    314.8319    
    299.7703    
    215.1894    
    336.1016    
    420.9426    
    329.2169    
    284.3127    
    432.2035    
    251.0121    
    206.3409    
    383.4681    
    308.6254    
    369.9091    
    285.2346    
    363.0146    
    248.6908    
    303.1165    
    427.4482    
    240.1693    
    271.4079    
    315.9031    
    466.8395    
    355.3915    
    320.5290    
    312.1485    
    277.3961    
    368.1427    
    283.7837    
    268.8618    
    198.1160    
    163.6396    
    313.0291    
    334.3545    
    319.3987    
    311.0498    
    253.3763    
    330.5974    
    318.9507    
    271.1487    
    364.8638    
    330.1330    
    220.0481    
    244.5158    
    311.6949    
    244.3307    
    285.2127    
    221.2472    
    173.8201    
    243.9615    
    343.8950    
    368.4448    
    235.5135    
    417.6001    
    376.2931    
    253.2095    
    277.6403    
    233.4319    
    189.3477    
    148.6364    
    195.6967    
    318.0156    
    267.2314    
    174.3346    
    345.5134    
    271.8317    
    234.2560    
    271.6359    
    260.1276    
    238.8667    
    139.8016    
    271.2397    
    289.0611    
    362.4418    
    305.1560    
    322.9931    
    162.0456    
    319.5060    
    307.9850    
    186.0949    
    271.9756    
    179.4672    
    262.0291    
    357.9549    
    274.8215    
    426.3267    
    349.4400    
    269.6552    
    365.4991    
    308.4223    
    290.4536    
    327.7015    
    436.8008    
    285.2715    
    328.9883    
    268.8756    
    250.9799    
    437.7302    
    192.6848    
    229.7016    
    205.4239    
    203.7301    
    376.7852    
    297.1974    
    386.2856    
    180.8826    
    308.2031    
    283.8494    
    408.5261    
    423.0239    
    272.2462    
    289.9015    
    365.8105    
    286.4666    
    291.2076    
    244.3847    
    320.0452    
    395.9785    
    368.3151    
    522.5173    
    377.7788    
    234.2008    
    419.6299    
    324.1132    
    290.1758    
    359.3860    
    280.3200    
    317.2260    
    422.0557    
    426.7760    
    425.0182    
    287.8555    
    525.2959    
    497.5165    
    434.1757    
    442.1243    
    324.2818    
    306.5012    
    266.3069    
    561.5318    
    501.2962    
    476.8494    
    397.5840    
    350.8045    
    361.9303    
    557.2562    
    442.1940    
    498.5887    
    461.2765    
    433.7076    
    383.6963    
    578.9494    
    476.8192    
    611.0749    
    476.5258    
    636.7065    
    492.3616    
    432.6089    
    427.6445    
    316.9547    
    472.4112    
    502.8768    
    514.0125    
    557.4491    
    604.1980    
    570.0345    
    600.5982    
    598.8032    
    484.0950    
    508.0731    
    403.5923    
    401.8669    
    670.7760    
    520.3214    
    457.5164    
    491.0732    
    553.6478    
    555.0901    
    489.0124    
    372.1040    
    556.1877    
    454.9151    
    600.9544    
    505.8986    
    494.5183    
    540.8921    
    481.4005    
    508.4777    
    493.9054    
    585.2154    
    622.0629    
    720.3945    
    631.3625    
    707.0343    
    695.5131    
    748.6947    
    543.8965    
    696.5189    
    630.2429    
    709.0303    
    700.7528    
    753.8699    
    530.1166    
    714.6614    
    699.9389    
    611.2870    
    705.9751    
    801.0934    
    812.2022    
    723.0913    
    902.6462    
    939.8440    
   1016.3250    
    877.5115    
   1035.3863    
   1145.0634    
   1047.9042    
   1009.9982    
   1008.0880    
   1061.7591    
   1072.9261    
   1064.4410    
   1157.6402    
   1142.5280    
    996.6199    
   1020.7984    
   1074.4084    
   1239.9810    
   1188.5834    
   1216.2320    
   1207.6730    
   1222.1494    
   1259.7030    
   1509.9570    
   1232.6634    
   1178.0950    
   1126.9810    
   1322.3234    
   1244.4682    
   1206.3253    
   1260.2401    
   1245.0900    
   1157.8190    
   1165.6860    
   1291.7760    
   1204.3443    
   1261.4603    
   1213.5200    
   1178.8013    
   1288.3731    
   1269.9392    
   1353.5404    
   1483.9150    
   1595.0700    
   1443.3210    
   1391.6650    
   1618.8280    
   1490.2010    
   1392.1822    
   1645.9184    
   1811.6840    
   1645.0360    
   1756.8530    
   1547.5210    
   1505.6090    
   1345.1193    
   1557.8884    
   1649.0552    
   1573.6632    
   1501.9291    
   1632.7160    
   1544.1830    
   1505.6720    
   1447.4610    
   1650.9482    
   1449.9710    
   1428.1750    
   1511.9084    
   1470.2303    
   1313.8481    
   1324.9400    
   1398.3210    
   1363.5010    
   1159.4840    
   1222.4580    
   1373.8612    
   1169.8752    
   1435.4390    
   1204.8981    
   1177.0211    
   1403.1231    
   1254.2441    
   1346.7644    
   1305.6320    
   1362.3663    
   1262.6370    
   1212.0150    
   1184.1710    
   1266.4831    
   1284.0112    
   1210.7021    
   1186.1200    
   1300.8400    
   1383.5390    
   1300.1410    
   1317.6670    
   1302.6910    
   1401.6240    
   1360.5080    
   1209.3751    
   1204.2100    
   1283.1102    
   1187.4320    
   1188.7190    
   1296.6522    
   1262.3193    
   1406.4000    
   1206.7720    
   1376.3620    
   1325.6840    
   1323.7034    
   1337.9360    
   1462.7811    
   1321.0261    
   1419.6560    
   1492.6090    
   1493.8470    
   1433.1610    
   1418.1480    
   1425.8930    
   1384.9300    
   1578.4670    
   1497.9830    
   1362.7670    
   1389.9320    
   1521.2434    
   1447.5893    
   1631.6384    
   1534.7140    
   1480.5620    
   1468.7930    
   1548.1690    
   1497.2680    
   1449.7700    
   1438.0332    
   1504.2060    
   1437.2720    
   1383.5160    
   1687.4991    
   1424.7990    
   1464.9000    
   1602.7430    
   1493.3090    
   1657.4500    
   1492.5164    
   1555.4553    
   1654.4970    
   1561.1364    
   1585.1300    
   1557.0680    
   1639.7000    
   1540.0070    
   1541.2200    
   1662.8800    
   1592.3840    
   1593.5933    
   1588.2934    
   1670.9171    
   1691.7040    
   1827.2770    
   1792.2980    
   1652.8700    
   1840.6313    
   1707.4410    
   1516.9582    
   1683.7061    
   1629.5680    
   1510.9170    
   1512.1320    
   1552.1260    
   1608.3920    
   1668.0430    
   1571.9222    
   1537.5784    
   1535.5590    
   1601.4260    
   1648.0120    
   1662.1800    
   1595.3130    
   1680.7970    
   1575.0890    
   1628.0400    
   1593.6463    
   1685.5330    
   1499.3710    
   1700.8830    
   1718.3110    
   1664.3221    
   1513.8630    
   1627.8700    
   1648.4583    
   1727.4320    
   1800.1763    
   1655.2540    
   1743.9373    
   1538.3870    
   1739.7834    
   1634.1580    
   1738.8780    
   1902.9400    
   1855.0690    
   1928.1263    
   1939.0860    
   2032.1430    
   1983.9714    
   1981.8150    
   1914.1860    
   2020.1730    
   2239.3662    
   2127.8110    
   1869.8031    
   2060.8040    
   2052.0480    
   2277.9951    
   2225.9310    
   2396.8613    
   2401.2580    
   2385.5950    
   2416.7441    
   2629.7490    
   2817.7170    
   2764.1280    
   2987.7302    
   3092.2883    
   3246.1830    
   3397.7373    
   3767.9221    
   3995.9370    
   4142.3422    
   4519.5290    
   4930.8022    
   5141.9331    
   5586.3540    
   6008.9453    
   6399.7841    
   6882.7153    
   7248.6962    
   7766.7300    
   8276.3300    
   8739.2580    
   9299.3251    
   9612.0060    
   9984.1523    
  10576.8200    
  11167.1510    
  11431.3210    
  11818.5400    
  12196.9400    
  12577.1640    
  12999.6710    
  13431.5600    
  13698.3210    
  13956.5700    
  14435.3730    
  14830.5400    
  15097.8000    
  15572.8130    
  15951.4500    
  16413.4840    
  16879.7100    
  17234.3600    
  17750.5720    
  18296.1700    
  18530.6540    
  19011.7100    
  19513.1210    
  19986.1800    
  20284.1500    
  20595.3100    
  20963.9700    
  21117.7700    
  21397.7200    
  21303.8020    
  21586.3500    
  21854.6710    
  21767.5700    
  21699.0600    
  21540.5200    
  21617.0700    
  21648.5540    
  21409.8920    
  21280.5600    
  21373.9000    
  21112.4410    
  20476.6000    
  20353.7420    
  19898.8700    
  19326.3200    
  18840.8000    
  17998.4210    
  17487.5200    
  16947.7900    
  16035.8800    
  15269.1000    
  14557.1840    
  13769.5100    
  12904.8300    
  12116.3100    
  11160.8500    
  10596.5310    
   9950.8960    
   9166.9130    
   8722.5920    
   8150.6132    
   7591.2543    
   6989.6093    
   6650.8550    
   6290.0210    
   5845.5650    
   5399.9404    
   5202.1503    
   4912.8823    
   4550.9830    
   4318.6201    
   4164.3660    
   4004.3030    
   3813.9310    
   3438.2062    
   3428.6950    
   3271.5512    
   3142.9233    
   3018.5800    
   2938.7160    
   2785.7961    
   2753.4780    
   2747.7924    
   2811.9920    
   2512.0380    
   2545.8710    
   2491.1044    
   2423.4614    
   2427.7402    
   2458.1520    
   2400.4450    
   2414.4980    
   2395.9831    
   2325.5402    
   2450.1580    
   2288.7600    
   2520.7990    
   2462.9860    
   2473.7814    
   2694.6943    
   2498.6511    
   2742.8910    
   2625.1542    
   2718.3771    
   2885.1520    
   2919.4113    
   2927.0200    
   2924.6040    
   2905.5420    
   3023.3950    
   3131.8332    
   3068.8164    
   3012.7392    
   3131.1333    
   3128.6650    
   3224.0120    
   3353.8230    
   3354.6674    
   3311.3290    
   3119.6674    
   3292.6901    
   3192.1284    
   3243.6430    
   3231.0014    
   3231.8654    
   3296.9970    
   3260.6340    
   3322.4311    
   3020.6181    
   3152.0634    
   3277.6110    
   3325.8470    
   3161.4340    
   3132.1252    
   3139.7130    
   3147.3020    
   3418.3240    
   3287.0083    
   3274.3710    
   3160.8950    
   3333.5083    
   3483.7563    
   3190.3650    
   3356.3560    
   3418.2082    
   3179.5780    
   3301.4714    
   3167.9260    
   3065.3142    
   2996.4360    
   3020.5660    
   2793.7824    
   2876.8950    
   2776.0080    
   2526.4274    
   2495.1230    
   2658.0883    
   2636.3002    
   2565.9370    
   2560.4460    
   2525.8881    
   2465.6520    
   2367.2033    
   2461.2160    
   2385.2200    
   2427.8850    
   2384.0420    
   2401.0560    
   2322.1980    
   2326.4023    
   2083.5590    
   2280.6890    
   2155.0080    
   2181.3250    
   2353.7934    
   2234.0320    
   2190.7644    
   2112.9700    
   2303.7400    
   2241.3190    
   2239.1800    
   2290.9194    
   2083.6680    
   2242.2714    
   2098.3320    
   2206.4094    
   2009.6380    
   2041.9600    
   1977.4510    
   2050.3344    
   1992.0610    
   1800.8201    
   2012.9083    
   2001.4941    
   1825.7190    
   1863.9013    
   1961.1182    
   1934.2410    
   1898.1130    
   1849.7121    
   1878.6160    
   1747.1990    
   1580.1873    
   1691.1740    
   1664.7650    
   1510.7124    
   1517.9160    
   1601.0480    
   1541.4130    
   1436.7050    
   1425.8000    
   1366.7950    
   1488.4553    
   1387.1420    
   1475.6470    
   1147.6560    
   1324.6520    
   1412.8171    
   1306.0480    
   1253.4960    
   1224.9040    
   1119.2974    
   1087.9893    
   1112.8221    
   1055.0060    
   1088.6433    
   1104.6080    
   1167.9063    
   1086.3593    
   1143.6563    
   1103.5021    
    925.6318    
   1105.9061    
   1030.5943    
    763.5662    
    997.8140    
   1051.8440    
   1103.0571    
   1124.8790    
   1031.9790    
   1021.4620    
    862.1815    
    872.1304    
    946.1559    
   1052.6780    
   1042.1560    
    993.6031    
    965.6212    
    961.0056    
    965.1351    
   1077.4840    
   1099.2250    
   1041.8010    
   1136.8640    
   1055.9151    
   1027.8693    
    927.0811    
   1027.3590    
    952.7766    
   1032.6833    
   1089.4490    
   1078.9320    
   1083.0560    
   1084.2490    
   1144.0422    
   1022.4000    
   1049.8480    
    833.4241    
   1058.0814    
    870.5272    
    981.8560    
    800.8957    
    833.8143    
    771.7469    
    902.6534    
    719.7508    
    815.6988    
    854.3608    
    694.8938    
    536.8184    
    521.1031    
    584.7354    
    657.1003    
    652.6562    
    625.4555    
    798.0600    
    494.8399    
    589.4821    
    568.0693    
    580.6687    
    641.5203    
    535.0984    
    533.5408    
    399.7183    
    589.8146    
    571.2570    
    392.3796    
    357.2863    
    589.1905    
    565.0061    
    634.1816    
    632.6053    
    582.9162    
    479.9136    
    582.6107    
    561.2851    
    458.4759    
    637.2771    
    590.4681    
    524.0916    
    424.3658    
    492.9034    
    424.1313    
    386.3007    
    541.6618    
    478.3547    
    488.0293    
    416.5569    
    470.9646    
    394.0080    
    328.5066    
    430.0516    
    414.5819    
    340.7093    
    311.4745    
    323.8649    
    439.2161    
    318.1253    
    427.8210    
    304.0866    
    266.6580    
    442.7948    
    427.3484    
    345.2683    
    191.9348    
    193.2422    
    131.4305    
    422.5873    
    387.7385    
    209.4652    
    312.7521    
    427.6782    
    273.9347    
    222.9242    
    204.9936    
    429.9819    
    257.0744    
    175.9949    
    381.1120    
    266.4634    
    259.5004    
    258.0457    
    130.5697    
    183.8273    
    270.1699    
    307.2327    
    250.7797    
    274.0464    
    393.8550    
    389.5971    
    418.5227    
    210.6544    
    324.4723    
    196.8392    
    244.6642    
    353.0956    
    203.4696    
    166.5518    
    271.7453    
    226.4947    
    167.7373    
     82.0357    
    233.1067    
    344.0395    
    219.2970    
    130.7126    
    413.9240    
    103.4635    
    134.6259    
    283.1430    
    120.9492    
    272.0320    
    229.6281    
     57.1882    
     50.3990    
    100.3794    
    107.0973    
    307.0562    
    234.6273    
     40.7746    
     42.0910    
     13.7708    
    150.1205    
    113.5229    
     50.0371    
    124.2378    
      0.0001    
    167.4475    
     17.6068    
     64.6677    
     36.3697    
    107.7241    
    217.2827    
    262.0406    
    181.9062    
    123.7270    
    235.9917    
    172.2448    
    192.4750    
    137.0066    
     22.6246    
    226.1317    
      0.0001    
    220.5650    
    322.3013    
      0.0001    
    121.8164    
    231.1036    
    135.1736    
     34.4042    
    118.9201    
     82.6013    
    240.2027    
    184.7444    
     38.2580    
    281.9412    
    102.5070    
     63.5833    
    102.4122    
    238.3230    
     35.3869    
     52.7294    
    185.5171    
    130.3445    
    110.1711    
    170.5276    
      3.1917    
    162.3468    
    160.9418    
    121.9924    
     40.3991    
    116.5269    
    190.2525    
    137.8586    
     66.9348    
      0.0001    
    289.6075    
    121.5822    
     34.8091    
     25.4585    
     56.0426    
    258.1930    
    235.2445    
     97.2513    
    165.3585    
     65.1770    
    213.4775    
    155.8131    
    186.5363    
     99.6444    
    215.8772    
    102.2159    
     63.5753    
      0.0001    
      0.0001    
      6.4248    
      0.0001    
      0.0001    
    135.1828    
     48.7133    
     34.0971    
      0.0001    
     81.7780    
    243.0611    
     97.6290    
      0.0001    
     94.8836    
    232.0597    
    137.3120    
    189.1929    
      7.3493    
    181.0694    
    115.8449    
    207.5988    
    144.9638    
     90.5072    
    283.5129    
      0.0001    
    189.9440    
    164.6164    
     25.5438    
    137.9443    
    147.1776    
    151.0989    
      0.0001    
     39.8917    
      0.0001    
    238.5885    
    215.8841    
    111.0503    
     75.3312    
     13.3732    
      0.0001    
    121.4279    
    204.8444    
    320.6167    
    101.4683    
     71.0984    
    156.8788    
    224.4119    
    230.9852    
     15.7228    
     59.0524    
     84.0278    
    190.9279    
    118.1913    
     95.7462    
     41.7963    
    334.0829    
    131.1801    
    293.9722    
    273.9531    
    177.1958    
    109.9061    
    261.7724    
    369.3974    
    370.6314    
    236.3664    
    311.8784    
