  11100 12  1 ##YSAG13.S PUC001 BMW  .000 # S1 070593 00.00  01        
  PROGRAM PE-FILECONVERT MAC VERSION 1.0                               
  USER BMW DATE & TIME  1993 06 12 00.00 05.00   10.5000    295K U     
 AU1 TM  50     0     0 YSAG             1.500000 - 2.200000 .0002     
 FILE NAME ON IBM-PC  = YSAG13.SP         ON MAC= P12063.06            
 NO_POINTS  =  3501.    pts   DATA_INTV =  .00020 nm                   
 MIN_LAMBDA =  1.500000 _m     MIN_DATA =    .52970                    
 MAX_LAMBDA =  2.200000 _m     MAX_DATA =    .81460                    
 SCANSPEED  = 15.000000 nm/min SLITWIDTH=   .20000 nmITA =   0.        
       RESP =    .500  sec        ISMS =   0.       DATE=93/05/07      
       INST = 509.                    ? =   0.                         
 0:00:05  12-07-1993                                                   
  This spectra is part of Database LASERS
 Database LASERS was created by Pat Cross working 
 at NASA Langley Research Center, Internal Operations Group,
 Aerospace Electronics Systems Division, Remote Sensing 
 Technology Branch. phone:(757)864-1633   fax:(757)864-7894 
     e-mail p.l.cross@larc.nasa.gov 
     homepage http://aesd.larc.nasa.gov/laser/dbmain.htm
  EOH.(1X,F11.4)                                                       
  3501.         
    374.7056    
    451.8480    
    485.7022    
    451.8620    
    519.6225    
    473.6286    
    466.3835    
    478.4804    
    430.1747    
    410.8902    
    418.1281    
    444.6774    
    382.0121    
    468.8525    
    345.9632    
    454.3675    
    483.3847    
    324.3822    
    514.8734    
    471.3149    
    517.3113    
    531.8712    
    553.7155    
    505.2235    
    410.9969    
    401.3718    
    447.1982    
    401.3857    
    346.0649    
    362.8931    
    377.3295    
    360.5037    
    420.7000    
    334.0945    
    401.4332    
    464.1765    
    454.5210    
    522.2817    
    495.6462    
    440.0491    
    544.1418    
    524.7346    
    507.7816    
    498.1004    
    413.5551    
    495.6940    
    442.5182    
    418.3974    
    476.3547    
    435.3000    
    346.2198    
    428.0764    
    493.3217    
    498.1715    
    546.6665    
    365.4830    
    522.4216    
    459.4982    
    411.2475    
    435.3639    
    454.6954    
    416.0846    
    490.9753    
    449.8833    
    418.5181    
    440.2397    
    454.7303    
    493.4359    
    457.1617    
    401.6837    
    500.7158    
    425.8042    
    392.0725    
    452.3642    
    430.6520    
    416.1844    
    454.8047    
    428.2587    
    481.4109    
    527.4365    
    459.6633    
    568.7208    
    537.1559    
    527.4633    
    627.1521    
    466.9525    
    508.0976    
    529.9146    
    447.6481    
    447.6515    
    491.1745    
    416.3015    
    440.4267    
    372.9735    
    363.3582    
    513.0048    
    447.7015    
    483.9623    
    520.2992    
    433.2372    
    471.8922    
    515.4706    
    525.1699    
    510.6420    
    433.2732    
    435.6938    
    438.1159    
    416.4095    
    442.9610    
    409.1942    
    426.0794    
    469.5530    
    435.7403    
    421.2804    
    496.1834    
    471.9969    
    452.6746    
    527.7003    
    542.2634    
    522.8674    
    505.9079    
    452.7107    
    525.3099    
    462.3839    
    459.9762    
    491.4156    
    351.5701    
    467.2468    
    493.8623    
    493.8728    
    481.7731    
    440.7044    
    349.2053    
    503.5786    
    552.0898    
    496.3303    
    493.9136    
    438.3355    
    431.0991    
    576.4169    
    486.6875    
    542.4211    
    525.4523    
    455.2756    
    554.5804    
    559.4506    
    474.6308    
    486.7306    
    414.2907    
    496.4270    
    554.6249    
    431.1920    
    491.6056    
    407.0924    
    445.6943    
    576.5234    
    532.8239    
    578.9716    
    583.8386    
    549.8296    
    477.1474    
    544.9877    
    552.2780    
    571.7214    
    574.1550    
    503.8071    
    562.0218    
    566.8833    
    421.6623    
    455.4547    
    530.4913    
    503.8479    
    557.2036    
    457.8932    
    465.1572    
    535.3809    
    528.1065    
    564.5302    
    569.3923    
    537.8309    
    581.5654    
    484.5469    
    482.1317    
    559.7078    
    436.2409    
    501.5142    
    477.3244    
    477.3325    
    525.7640    
    516.0783    
    494.2899    
    465.2678    
    484.6214    
    489.4702    
    506.4186    
    496.7416    
    542.8054    
    487.0753    
    547.6702    
    545.2540    
    537.9757    
    537.9792    
    635.2838    
    586.5806    
    569.5665    
    572.0057    
    596.3361    
    603.6390    
    559.8785    
    557.4584    
    572.0408    
    545.3264    
    533.2080    
    564.7711    
    523.5151    
    460.5996    
    504.1522    
    487.2104    
    574.5248    
    518.7090    
    542.9643    
    645.1642    
    652.4953    
    654.9451    
    637.8665    
    596.4614    
    562.4310    
    506.6436    
    550.2959    
    528.4683    
    511.5120    
    530.9058    
    496.9910    
    477.6457    
    446.2347    
    518.8093    
    492.1764    
    611.1511    
    601.4149    
    655.0462    
    616.0404    
    628.2305    
    543.1080    
    601.4489    
    650.2056    
    574.7050    
    582.0031    
    540.7169    
    560.1486    
    574.7331    
    565.0143    
    635.6114    
    533.4754    
    603.9496    
    560.1813    
    552.9067    
    584.5059    
    557.7729    
    526.2378    
    523.8220    
    613.7363    
    521.4077    
    565.0974    
    591.8500    
    548.1119    
    640.5798    
    587.0009    
    647.9185    
    577.2875    
    569.9994    
    709.0351    
    599.2039    
    577.3145    
    502.1040    
    589.4880    
    528.7742    
    562.7631    
    516.6663    
    506.9782    
    487.6216    
    480.3735    
    557.9343    
    621.1867    
    645.5787    
    662.6761    
    574.9694    
    626.0880    
    677.3499    
    687.1368    
    609.0562    
    623.6771    
    672.4883    
    577.4444    
    606.6522    
    570.1667    
    633.4598    
    526.4864    
    599.3750    
    631.0433    
    618.8620    
    643.2523    
    582.3672    
    582.3765    
    633.5150    
    645.7126    
    675.0231    
    626.2252    
    567.8213    
    633.5432    
    550.8288    
    565.4119    
    584.8665    
    504.7817    
    521.7461    
    587.3159    
    558.1552    
    638.4793    
    553.3123    
    584.9052    
    648.2532    
    592.2248    
    638.5110    
    638.5134    
    594.6692    
    580.0847    
    670.2692    
    638.5427    
    706.9589    
    655.6302    
    636.1208    
    680.0735    
    704.5400    
    636.1408    
    611.7736    
    616.6560    
    589.8837    
    614.2346    
    597.1960    
    531.6062    
    504.9531    
    517.0745    
    585.0597    
    568.0471    
    711.9565    
    606.9745    
    568.0658    
    611.8627    
    685.0724    
    607.0026    
    636.2465    
    672.8647    
    570.5352    
    597.2955    
    592.4321    
    585.1393    
    590.0091    
    524.4487    
    575.4340    
    570.5820    
    590.0372    
    609.5145    
    631.4458    
    582.7605    
    697.4009    
    665.6328    
    707.2016    
    746.4111    
    685.1948    
    717.0120    
    648.5728    
    714.5814    
    741.5378    
    590.1191    
    551.2401    
    660.8107    
    660.8165    
    663.2675    
    648.6268    
    631.5573    
    633.9997    
    631.5655    
    587.7444    
    675.5160    
    629.1539    
    616.9727    
    582.9045    
    597.5029    
    653.5645    
    685.3301    
    570.7785    
    673.1259    
    690.2385    
    673.1340    
    744.1255    
    638.9689    
    636.5411    
    668.2783    
    587.8474    
    670.7302    
    600.0218    
    629.2548    
    612.2039    
    534.4387    
    626.8376    
    643.9182    
    578.1676    
    636.6103    
    705.0160    
    709.9165    
    731.9720    
    751.5916    
    687.9230    
    731.9932    
    749.1589    
    744.2589    
    729.5535    
    614.7341    
    651.3146    
    709.9813    
    663.5378    
    661.1022    
    690.4269    
    636.7089    
    719.8050    
    724.7094    
    666.0090    
    783.6123    
    651.3768    
    805.7570    
    776.2637    
    763.9881    
    756.6305    
    734.5606    
    697.8366    
    734.5724    
    710.0862    
    656.3140    
    697.8684    
    585.6697    
    634.3765    
    727.2604    
    673.4387    
    663.6742    
    768.9771    
    675.9018    
    710.1487    
    693.0275    
    729.7576    
    855.1505    
    719.9677    
    766.5669    
    803.4368    
    803.4404    
    874.9188    
    855.1861    
    722.4545    
    872.4715    
    860.1396    
    833.0244    
    897.1985    
    793.6552    
    830.5777    
    810.8848    
    712.7061    
    828.1301    
    801.0590    
    724.9711    
    820.7618    
    830.6203    
    882.4329    
    934.3832    
    840.4969    
    877.5081    
    889.8654    
    838.0480    
    917.0773    
    835.5924    
    779.0074    
    951.7765    
    899.7894    
    894.8494    
    909.6925    
    823.3199    
    862.7672    
    875.1151    
    815.9465    
    867.7167    
   1003.9644    
    917.1595    
   1016.4077    
    919.6424    
   1021.3950    
   1048.7919    
    969.2274    
    946.9148    
    961.7985    
    996.5626    
    984.1501    
    979.1894    
    944.4689    
    946.9553    
    954.3952    
    971.7649    
   1009.0334    
    942.0173    
    971.7828    
   1143.8035    
   1014.0271    
   1036.4318    
   1111.2911    
   1053.8861    
   1083.8270    
   1093.8214    
   1106.3201    
   1183.9630    
   1066.3837    
   1088.8549    
   1086.3630    
   1073.8884    
   1204.0844    
   1178.9850    
   1184.0089    
   1178.9934    
   1201.5930    
   1251.9027    
   1221.7124    
   1244.3604    
   1309.9354    
   1408.7152    
   1418.8804    
   1421.4296    
   1421.4357    
   1477.4260    
   1569.3997    
   1577.0892    
   1592.4738    
   1703.0529    
   1682.4387    
   1728.8702    
   1765.0654    
   1734.0499    
   1840.2576    
   1892.2837    
   1788.3878    
   1936.6246    
   2059.7297    
   2004.6411    
   2215.4102    
   2252.5403    
   2340.3428    
   2557.5774    
   2498.3381    
   2622.4324    
   2763.6936    
   2722.8447    
   2837.4629    
   2900.5281    
   2985.8579    
   3079.8850    
   3082.6636    
   3193.8943    
   3345.0962    
   3381.6797    
   3571.3267    
   3714.0977    
   3774.3853    
   3968.0044    
   4154.8115    
   4260.7031    
   4465.3164    
   4450.4214    
   4663.1177    
   4817.3799    
   4917.8701    
   5154.4209    
   5219.4497    
   5191.5605    
   5403.3467    
   5547.9624    
   5649.2202    
   5808.5151    
   5914.3833    
   6105.1426    
   6265.0347    
   6320.8286    
   6499.1294    
   6565.5942    
   6642.3193    
   6864.1992    
   6877.7402    
   6986.3369    
   7232.9619    
   7277.8408    
   7257.1216    
   7451.4229    
   7392.2358    
   7605.4966    
   7640.6924    
   7725.4165    
   7760.8330    
   7860.3418    
   7860.3467    
   7881.7446    
   7789.2324    
   7878.1836    
   7924.6074    
   7863.9355    
   8017.7964    
   7999.8472    
   7960.4170    
   8035.7886    
   7924.6431    
   7964.0146    
   7964.0195    
   7846.1665    
   7828.3813    
   7760.9233    
   7714.9092    
   7803.5161    
   7542.4448    
   7472.5010    
   7514.4497    
   7375.0151    
   7215.9160    
   7219.3638    
   7150.5938    
   7171.2061    
   7085.4971    
   7027.4375    
   6911.8403    
   6935.5894    
   6589.1733    
   6679.3828    
   6592.5190    
   6525.9712    
   6419.9683    
   6278.4526    
   6111.9595    
   6115.2163    
   5889.0015    
   5869.7368    
   5741.7983    
   5589.3984    
   5538.8726    
   5482.1865    
   5397.4780    
   5353.7036    
   5288.2271    
   5102.3691    
   5108.5425    
   4948.8726    
   4903.0640    
   4793.5669    
   4588.4316    
   4588.4331    
   4409.2500    
   4290.7300    
   4211.1426    
   4032.5435    
   3985.9739    
   3927.9258    
   3838.2939    
   3777.8181    
   3714.6704    
   3517.9395    
   3515.1084    
   3489.6086    
   3407.6519    
   3328.8555    
   3149.9575    
   3061.1343    
   2989.2708    
   2925.9263    
   2846.3569    
   2794.4016    
   2718.0984    
   2652.9343    
   2547.5208    
   2571.8062    
   2563.7161    
   2429.3010    
   2247.9993    
   2375.8074    
   2229.4456    
   2282.5422    
   2197.6704    
   2092.1040    
   2139.5398    
   2023.8015    
   2008.0785    
   1971.4366    
   1900.9590    
   1885.3370    
   1942.7111    
   1841.1440    
   1856.7397    
   1820.3826    
   1714.3005    
   1719.4653    
   1688.5227    
   1675.6475    
   1655.0680    
   1624.2335    
   1503.9183    
   1567.8317    
   1552.4817    
   1590.9026    
   1598.5958    
   1529.4817    
   1629.4036    
   1655.1176    
   1560.1865    
   1583.2419    
   1567.8784    
   1455.5557    
   1567.8932    
   1430.1316    
   1369.2202    
   1354.0293    
   1290.8392    
   1364.1678    
   1371.7773    
   1351.5209    
   1473.4305    
   1422.5502    
   1437.8080    
   1427.6400    
   1437.8164    
   1425.1083    
   1453.0901    
   1356.6248    
   1481.1194    
   1501.5276    
   1374.3812    
   1460.7599    
   1354.1221    
   1397.2225    
   1387.0751    
   1384.5450    
   1387.0897    
   1478.6222    
   1417.5631    
   1539.8975    
   1532.2354    
   1440.4526    
   1483.7468    
   1427.7489    
   1397.2800    
   1511.8248    
   1392.2164    
   1437.9463    
   1387.1581    
   1336.5013    
   1387.1654    
   1369.4227    
   1371.9629    
   1397.3313    
   1301.1520    
   1328.9509    
   1445.6221    
   1366.9255    
   1407.5088    
   1364.3983    
   1354.2769    
   1415.1454    
   1435.4843    
   1377.0989    
   1455.8474    
   1432.9564    
   1476.2286    
   1466.0464    
   1488.9880    
   1443.1542    
   1458.4271    
   1372.0677    
   1372.0751    
   1359.4106    
   1260.9000    
   1387.3033    
   1265.9567    
   1233.2280    
   1306.3298    
   1263.4501    
   1349.3198    
   1311.3972    
   1205.5973    
   1273.5551    
   1334.1692    
   1311.4192    
   1334.1730    
   1253.4136    
   1319.0149    
   1276.1078    
   1286.2048    
   1195.5985    
   1200.6268    
   1165.4996    
   1100.4396    
   1195.6204    
   1142.9741    
   1208.1943    
   1102.9609    
   1193.1278    
   1245.9288    
   1233.3552    
   1258.5385    
   1296.3693    
   1228.3376    
   1288.8019    
   1223.3176    
   1298.9119    
   1213.2781    
   1225.8552    
   1153.0647    
   1168.1045    
   1168.1105    
   1105.5392    
   1120.5474    
   1083.0747    
   1208.2924    
   1165.6288    
   1208.2996    
   1246.0343    
   1223.3988    
   1225.9146    
   1276.2863    
   1205.8151    
   1276.2959    
   1238.5160    
   1198.3018    
   1258.6683    
   1178.2266    
   1203.3345    
   1193.2970    
   1178.2483    
   1304.0975    
   1316.7313    
   1266.2612    
   1309.1606    
   1306.6436    
   1344.5725    
   1336.9824    
   1390.1805    
   1390.1866    
   1339.5291    
   1362.3202    
   1407.9696    
   1392.7467    
   1502.1517    
   1563.4978    
   1499.6187    
   1469.0322    
   1261.3053    
   1540.4896    
   1456.3131    
   1568.6539    
   1607.1061    
   1555.8619    
   1617.3754    
   1702.2855    
   1668.8005    
   1707.4557    
   1784.9937    
   1792.7670    
   1797.9554    
   1860.2632    
   1818.7137    
   1951.4885    
   1881.0820    
   1933.2202    
   1925.4006    
   1938.4546    
   1943.6805    
   1933.2389    
   2019.5723    
   2037.9427    
   1948.9242    
   2082.6167    
   2103.6738    
   2177.5620    
   2111.5923    
   2185.5034    
   2265.0149    
   2315.5491    
   2339.5378    
   2352.8801    
   2350.2146    
   2403.6455    
   2395.6309    
   2457.2439    
   2457.2449    
   2516.3652    
   2559.4731    
   2556.7827    
   2583.7791    
   2697.5481    
   2697.5496    
   2724.7451    
   2820.2153    
   2891.4451    
   2943.6699    
   2962.9475    
   3009.8459    
   2993.2920    
   3020.9067    
   3020.9092    
   3145.6743    
   3123.4446    
   3112.3362    
   3131.7839    
   3179.1018    
   3276.8813    
   3254.4995    
   3366.7261    
   3423.0903    
   3468.3074    
   3507.9661    
   3587.5095    
   3661.6729    
   3701.7322    
   3673.1216    
   3744.7476    
   3857.0239    
   3808.0105    
   3848.3794    
   3981.6047    
   3793.6287    
   3903.3042    
   4007.7961    
   3961.2922    
   3999.0715    
   4013.6301    
   4095.3254    
   4077.7954    
   4104.1055    
   4121.6650    
   4019.4788    
   4074.8958    
   4124.6118    
   4063.2227    
   4104.1382    
   4086.6040    
   4060.3223    
   4151.0063    
   4089.5381    
   4148.0908    
   4118.7983    
   4110.0200    
   4039.9387    
   4042.8569    
   4025.3711    
   4074.9661    
   4101.2764    
   3952.7051    
   4028.3052    
   4080.8279    
   3999.2114    
   4107.1494    
   4031.2400    
   4063.3267    
   4069.1736    
   4066.2571    
   3981.7908    
   4005.0625    
   3996.3418    
   3984.7141    
   3935.3672    
   3920.8835    
   3871.7083    
   3747.8628    
   3819.7725    
   3839.9634    
   3793.8687    
   3877.5078    
   3776.6179    
   3722.0789    
   3799.6431    
   3793.8894    
   3839.9966    
   3819.8225    
   3739.3091    
   3759.4106    
   3773.7871    
   3676.2996    
   3633.4492    
   3659.1577    
   3587.8660    
   3602.1069    
   3519.6697    
   3567.9607    
   3616.3694    
   3573.6550    
   3613.5293    
   3630.6494    
   3647.7778    
   3659.2058    
   3599.3035    
   3491.3760    
   3587.9194    
   3573.6987    
   3585.0891    
   3559.4915    
   3381.2512    
   3375.6306    
   3381.2649    
   3347.5039    
   3341.8906    
   3182.3877    
   3316.6267    
   3302.6003    
   3274.5891    
   3327.8699    
   3339.1077    
   3218.6755    
   3274.6094    
   3260.6140    
   3271.8147    
   3257.8293    
   3135.1230    
   3135.1257    
   3013.2104    
   3121.2429    
   3057.4614    
   3076.8584    
   3057.4773    
   3024.2878    
   3027.0532    
   3002.2017    
   2985.6492    
   2971.8643    
   2977.3855    
   3029.8440    
   2922.3337    
   2900.3628    
   2936.0999    
   2894.8784    
   2769.0339    
   2870.2043    
   2831.8650    
   2749.9688    
   2692.8542    
   2660.2908    
   2649.4502    
   2652.1724    
   2622.3855    
   2698.3057    
   2581.8484    
   2592.6567    
   2579.1536    
   2514.4751    
   2533.3279    
   2482.2202    
   2452.7029    
   2447.3484    
   2404.4985    
   2441.9915    
   2372.4365    
   2420.5713    
   2436.6477    
   2396.5010    
   2319.1123    
   2353.7678    
   2212.8904    
   2220.8401    
   2191.7200    
   2144.1692    
   2186.4407    
   2146.8123    
   2086.2166    
   2094.1138    
   2141.5496    
   2078.3391    
   2120.4658    
   2054.6907    
   2028.4535    
   2033.7029    
   2031.0806    
   1991.7825    
   2046.8401    
   1840.5538    
   1929.0699    
   1952.5729    
   1773.1609    
   1812.0323    
   1804.2549    
   1793.8907    
   1749.9105    
   1760.2520    
   1724.0819    
   1786.1458    
   1700.8778    
   1768.0313    
   1757.6956    
   1729.2729    
   1703.4725    
   1600.6208    
   1585.2396    
   1623.7217    
   1562.2039    
   1582.6931    
   1569.8904    
   1411.8047    
   1465.2026    
   1477.9487    
   1549.4395    
   1508.5581    
   1523.8861    
   1521.3394    
   1577.6096    
   1580.1802    
   1534.1254    
   1500.9318    
   1411.8572    
   1409.3203    
   1427.1041    
   1343.4333    
   1361.1544    
   1429.6617    
   1366.2327    
   1442.3850    
   1391.5900    
   1424.6031    
   1424.6006    
   1399.2153    
   1414.4520    
   1444.9546    
   1490.8088    
   1422.0865    
   1401.7728    
   1330.8525    
   1409.4034    
   1437.3561    
   1348.5765    
   1232.5061    
   1194.8201    
   1257.6919    
   1358.7145    
   1315.7264    
   1320.7817    
   1323.3130    
   1338.4926    
   1376.4717    
   1328.3835    
   1439.9592    
   1414.5449    
   1366.3596    
   1424.7180    
   1452.6919    
   1488.3632    
   1534.3112    
   1496.0201    
   1452.7178    
   1409.5050    
   1547.1145    
   1567.5889    
   1654.8364    
   1524.1285    
   1580.4097    
   1593.2280    
   1665.1487    
   1654.8600    
   1690.9122    
   1667.7360    
   1765.7903    
   1822.7974    
   1734.7787    
   1708.9771    
   1721.8834    
   1711.5640    
   1890.4016    
   1843.5928    
   1906.0391    
   1955.6273    
   1966.0773    
   1958.2480    
   1953.0245    
   1984.4038    
   2042.0699    
   2055.1965    
   2123.6169    
   2189.6348    
   2194.9299    
   2165.8555    
   2282.4500    
   2216.1230    
   2253.2468    
   2317.0503    
   2405.1399    
   2375.7327    
   2410.4993    
   2391.7803    
   2383.7627    
   2359.7397    
   2421.2212    
   2386.4531    
   2389.1313    
   2426.5903    
   2346.4236    
   2383.7959    
   2405.1938    
   2306.4727    
   2402.5264    
   2466.8408    
   2383.8179    
   2407.8928    
   2453.4363    
   2375.8176    
   2381.1726    
   2354.4705    
   2319.8252    
   2263.9829    
   2277.2698    
   2256.0317    
   2237.4600    
   2203.0278    
   2264.0073    
   2184.5142    
   2176.5908    
   2264.0173    
   2229.5388    
   2200.4050    
   2234.8477    
   2226.8982    
   2142.2800    
   2094.8564    
   2037.0393    
   2021.3104    
   1979.4098    
   1919.3397    
   1872.4647    
   1916.7406    
   1929.7913    
   1830.8999    
   1776.4695    
   1799.7821    
   1869.8883    
   1833.5160    
   1797.2043    
   1802.3978    
   1804.9901    
   1680.9741    
   1704.1715    
   1732.5579    
   1626.9834    
   1557.7689    
   1580.8229    
   1560.3418    
   1511.7819    
   1537.3312    
   1491.3798    
   1422.6676    
   1509.2476    
   1573.1725    
   1473.5616    
   1537.3607    
   1606.5022    
   1488.8652    
   1532.2649    
   1465.9396    
   1509.2881    
   1499.0857    
   1369.4349    
   1361.8409    
   1394.7964    
   1328.9570    
   1280.9802    
   1250.7522    
   1341.6097    
   1336.5598    
   1235.6630    
   1336.5696    
   1316.3492    
   1336.5768    
   1303.7328    
   1313.8335    
   1346.7133    
   1331.5344    
   1238.2130    
   1278.5203    
   1303.7571    
   1223.1373    
   1258.3723    
   1195.5139    
   1205.5575    
   1265.9469    
   1238.2457    
   1223.1675    
   1303.7936    
   1253.3674    
   1321.4851    
   1286.1416    
   1336.6646    
   1308.8641    
   1271.0292    
   1205.6069    
   1220.6943    
   1233.2656    
   1195.5781    
   1296.2708    
   1175.5128    
   1167.9958    
   1137.9404    
   1213.1825    
   1273.5902    
   1180.5564    
   1165.5093    
   1238.3488    
   1175.5442    
   1238.3561    
   1203.1641    
   1150.4994    
   1185.6014    
   1235.8579    
   1180.5927    
   1173.0724    
   1230.8396    
   1117.9924    
   1178.1057    
   1223.3055    
   1198.1906    
   1198.1893    
   1165.5865    
   1215.7830    
   1190.6779    
   1193.1895    
   1256.0547    
   1105.5415    
   1163.1052    
   1225.8674    
   1183.1730    
   1256.0753    
   1175.6566    
   1120.5679    
   1240.9805    
   1266.1738    
   1183.1984    
   1190.7371    
   1165.6530    
   1160.6494    
   1173.1824    
   1213.3556    
   1118.1044    
   1120.6160    
   1160.6652    
   1253.6210    
   1233.4885    
   1178.2325    
   1230.9825    
   1140.6523    
   1138.1561    
   1158.1929    
   1195.8197    
   1130.6611    
   1160.7134    
   1073.2120    
   1103.1738    
   1075.7166    
   1143.1970    
   1090.6978    
   1135.6964    
   1170.7676    
   1243.6283    
   1193.3550    
   1233.5720    
   1130.7117    
   1198.3961    
   1173.3019    
   1188.3636    
   1210.9611    
   1163.2947    
   1100.7379    
   1128.2480    
   1128.2457    
   1140.7681    
   1050.8590    
   1033.4374    
   1068.3157    
   1108.2705    
   1148.2960    
   1160.8317    
   1213.5261    
   1153.3253    
   1205.9989    
   1241.2083    
   1208.5186    
   1188.4421    
   1103.3062    
   1073.3610    
   1090.8276    
   1070.8749    
   1011.1081    
    986.2735    
    934.1960    
   1033.5165    
    973.8666    
   1043.4845    
   1103.3507    
   1078.3933    
   1128.3601    
   1158.4137    
   1153.4012    
   1135.8844    
   1211.1111    
   1103.3879    
   1103.3868    
   1088.4113    
   1026.1044    
   1068.4562    
    929.3173    
   1013.6799    
   1003.7406    
   1021.1506    
    971.4675    
   1080.9562    
   1090.9442    
   1068.4911    
   1153.4749    
   1046.0702    
   1061.0233    
   1115.9493    
   1075.9966    
   1048.5784    
   1031.1553    
    998.8237    
    936.8183    
    941.7692    
    926.9225    
   1001.3269    
    959.1382    
   1011.2781    
   1061.0797    
   1011.2864    
   1038.6665    
   1128.5143    
   1036.1801    
   1106.0216    
   1046.1519    
   1026.2397    
   1033.7095    
   1083.5651    
   1063.6139    
   1003.8759    
   1061.1241    
   1053.6581    
   1041.2013    
    993.9572    
   1076.1058    
   1041.2205    
   1018.8209    
   1061.1614    
   1071.1354    
   1153.6244    
   1043.7291    
   1023.8196    
   1048.7200    
    998.9661    
   1011.3978    
    996.4848    
    946.8730    
    994.0110    
   1021.3663    
   1076.1696    
    964.2454    
   1003.9691    
    919.6579    
    951.8577    
    964.2585    
    996.5315    
   1036.3286    
    907.3169    
    944.4391    
    949.4075    
    951.8851    
    996.5602    
   1048.8027    
    966.7775    
    986.6370    
    959.3459    
    959.3495    
    922.1971    
    954.4036    
    951.9233    
    969.2919    
   1006.5364    
    944.5082    
    816.1077    
    818.5739    
    855.5317    
    848.1398    
    850.6090    
    848.1458    
    823.5203    
    840.7592    
    860.4936    
    855.5577    
    895.0636    
    897.5400    
    845.7137    
    848.1814    
    917.3287    
    870.3929    
    806.3314    
    791.5911    
    771.9385    
    791.5946    
    698.4326    
    735.1589    
    808.8212    
    703.3349    
    727.8254    
    833.4467    
    762.1541    
    845.7755    
    791.6336    
    752.3534    
    818.6924    
    828.5510    
    863.0570    
    813.7888    
    786.7429    
    781.8344    
    759.7424    
    652.0911    
    693.6210    
    649.6570    
    656.9863    
    691.1850    
    627.7294    
    700.9754    
    659.4437    
    698.5397    
    700.9848    
    730.3710    
    652.1370    
    745.0818    
    620.4559    
    630.2054    
    701.0155    
    713.2494    
    681.4667    
    644.8483    
    613.1747    
    581.5536    
    583.9815    
    664.3889    
    669.2708    
    659.5131    
    703.5010    
    745.1396    
    693.7281    
    747.5967    
    728.0012    
    710.8616    
    728.0059    
    654.6643    
    564.5921    
    630.2910    
    513.6696    
    503.9901    
    557.3287    
    674.2208    
    640.0608    
    620.5627    
    615.7039    
    676.6793    
    681.5703    
    598.6756    
    581.6520    
    571.9426    
    567.0809    
    569.5175    
    567.0915    
    537.9699    
    494.3750    
    479.8600    
    506.4815    
    545.2657    
    508.9127    
    562.2685    
    511.3405    
    542.8545    
    516.1949    
    615.7789    
    640.1523    
    579.2924    
    528.3259    
    593.8915    
    627.9781    
    547.7438    
    489.5960    
    538.0470    
    506.5480    
    545.3311    
    516.2463    
    460.6100    
    470.2803    
    472.7021    
    579.3485    
    581.7866    
    674.3785    
    720.8532    
    521.1229    
    496.9059    
    477.5677    
    429.2771    
    345.0718    
    280.3650    
    388.3399    
    424.4773    
    361.9002    
    487.2652    
    545.4094    
    429.3096    
    458.2793    
    528.4462    
    584.2823    
    523.6084    
    463.1202    
    559.9990    
    618.3636    
    581.8697    
    530.8999    
    538.1743    
    431.7692    
    424.5411    
    477.6515    
    518.8046    
    465.5784    
    467.9996    
    552.7653    
    535.7792    
    482.5136    
    506.7147    
    460.7671    
    285.2680    
    371.6201    
    443.8825    
    547.9424    
    540.6631    
    526.1223    
    521.2817    
    504.3259    
    468.0590    
    501.9187    
    359.6394    
    369.2597    
    470.4840    
    422.2206    
    468.0799    
    511.6240    
    487.4318    
    506.7905    
    572.2806    
    552.8611    
    511.6449    
    463.2761    
    439.1382    
    407.8011    
    400.5856    
    398.1799    
    422.2740    
    516.5228    
    506.8325    
    480.2245    
    531.0715    
    603.9402    
    463.3203    
    417.4794    
    487.4958    
    504.4460    
    560.2094    
    535.9496    
    562.6474    
    577.2208    
    441.6235    
    318.9669    
    383.8052    
    429.5732    
    369.3893    
    415.1168    
    519.0217    
    477.8797    
    482.7198    
    432.0131    
    432.0142    
    460.9799    
    482.7384    
    569.9888    
    511.7826    
    376.6475    
    448.9243    
    446.5172    
    453.7628    
    403.1273    
    415.1830    
    451.3620    
    521.5022    
    548.1843    
    494.8772    
    504.5614    
    388.7200    
    395.9402    
    350.2622    
    364.6833    
    439.3265    
    439.3335    
    482.8176    
    555.4980    
    555.5051    
    521.5593    
    395.9727    
    355.1035    
    468.3347    
    398.3909    
    463.5099    
    427.3136    
    420.0826    
    475.6039    
    519.1686    
    582.2642    
    514.3345    
    434.5741    
    429.7485    
    436.9949    
    490.1412    
    511.9260    
    468.3940    
    417.7185    
    453.9001    
    519.2153    
    434.6078    
    538.6076    
    495.0135    
    478.0857    
    492.5970    
    340.7925    
    449.1080    
    335.9953    
    276.1105    
    331.2062    
    362.4198    
    362.4302    
    451.5457    
    307.2454    
    367.2491    
    499.9011    
    475.7145    
    478.1428    
    504.7538    
    528.9808    
    434.6879    
    432.2767    
    417.8125    
    374.4948    
    340.8641    
    192.6332    
    319.2821    
    376.9115    
    357.6854    
    388.9459    
    391.3574    
    444.3741    
    483.0330    
    473.3702    
    398.5915    
    468.5406    
    485.4704    
    429.9250    
    386.5764    
    362.5378    
    338.5261    
    321.7391    
    304.9703    
    314.5526    
    345.7423    
    454.0908    
    352.9545    
    413.0898    
    526.6732    
    502.4549    
    519.4067    
    497.6203    
    444.4589    
    386.6297    
    502.4735    
    401.0842    
    302.6216    
    300.2317    
    372.2267    
    377.0354    
    317.0171    
    408.3335    
    410.7417    
    288.2820    
    307.4485    
    396.3054    
    408.3463    
    432.4544    
    386.6946    
    434.8726    
    408.3648    
    254.8375    
    398.7410    
    480.7740    
    459.0318    
    418.0190    
    410.7927    
    473.5367    
    483.2112    
    459.0446    
    432.5055    
    490.4813    
    422.8671    
    507.4248    
    398.7897    
    418.0574    
    475.9845    
    543.7925    
    509.8653    
    490.5046    
    381.9646    
    492.9372    
    492.9372    
    377.1662    
    384.3879    
    372.3645    
    362.7508    
    353.1488    
    425.3398    
    434.9864    
    420.5248    
    302.7992    
    396.4468    
    439.8260    
    425.3654    
    394.0509    
    432.6007    
    485.7395    
    413.3300    
    372.4166    
    331.5944    
    362.8144    
    430.2142    
    415.7527    
    432.6333    
    418.1757    
    490.6095    
    447.1192    
    449.5404    
    505.1408    
    478.5316    
    478.5374    
    454.3838    
    360.4539    
    437.4955    
    418.2129    
    423.0343    
    312.4739    
    267.0011    
    379.7083    
    444.7552    
    427.8709    
    439.9411    
    493.0945    
    401.3787    
    420.6571    
    401.3926    
    314.9104    
    298.1396    
    298.1488    
    288.5805    
    362.9220    
    379.7546    
    350.9225    
    452.0503    
    399.0135    
    444.8145    
    389.3990    
    437.5850    
    379.7766    
    350.9456    
    466.5661    
    524.6378    
    527.0700    
    396.6451    
    493.1749    
    370.1858    
    367.7896    
    358.1840    
    298.2226    
    391.8488    
    418.3452    
    341.3900    
    415.9418    
    384.6474    
    418.3625    
    310.2270    
    303.0392    
    339.0103    
    411.1500    
    401.5155    
    418.3777    
    485.9817    
    452.1619    
    401.5294    
    389.4963    
    408.7639    
    346.2464    
    303.0830    
    295.9001    
    245.6911    
    228.9857    
    341.4583    
    358.2742    
    358.2812    
    324.6802    
    355.8796    
    461.8674    
    449.8020    
    343.8892    
    339.0889    
    461.8826    
    394.3789    
    358.3101    
    315.1193    
    384.7610    
    396.8015    
    339.1178    
    478.8204    
    464.3277    
    315.1482    
    367.9505    
    336.7325    
    284.0223    
    375.1780    
    317.5596    
    245.7832    
    267.2947    
    377.5970    
    375.1919    
    351.1653    
    293.6263    
    336.7764    
    372.8033    
    324.7818    
    389.6481    
    353.5941    
    269.7220    
    348.7948    
    308.0254    
    250.6164    
    284.0891    
    221.9743    
    221.9812    
    262.5793    
    308.0473    
    387.2786    
    312.8490    
    310.4578    
    363.2483    
    281.7257    
    372.8646    
    365.6612    
    210.0988    
    310.4763    
    327.2569    
    363.2738    
    416.2169    
    305.6994    
    308.0946    
    418.6342    
    336.8828    
    257.8616    
    324.8881    
    274.6016    
    377.7314    
    281.7868    
    284.1801    
    293.7612    
    327.3146    
    284.1963    
    322.5231    
    310.5386    
    293.7785    
    370.5516    
    348.9312    
    365.7468    
    363.3490    
    368.1612    
    332.1443    
    339.3443    
    226.8900    
    210.2010    
    289.0312    
    289.0323    
    363.3745    
    186.3930    
    243.6223    
    293.8327    
    214.9907    
    205.4630    
    105.6451    
    229.3143    
    329.7969    
    438.0427    
    327.4047    
    353.8115    
    387.4651    
    481.5274    
    457.3722    
    445.3084    
    450.1367    
    356.2325    
    253.2256    
    234.1307    
    238.9116    
    217.4389    
    186.4652    
    162.6800    
    289.1245    
    373.0846    
    327.4613    
    471.9084    
    520.3097    
    404.3774    
    389.9355    
    389.9367    
    361.0857    
    377.9178    
    329.8927    
    267.6309    
    286.7663    
    217.4963    
    227.0451    
    272.4271    
    246.1431    
    315.5245    
    181.7801    
    250.9327    
    368.3406    
    349.1278    
    368.3441    
    440.5941    
    421.3094    
    406.8547    
    428.5409    
    382.7893    
    382.7974    
    346.7575    
    387.6145    
    390.0213    
    286.8424    
    296.4190    
    346.7748    
    327.5791    
    368.3939    
    329.9851    
    265.3340    
    378.0290    
    370.8155    
    361.2025    
    370.8236    
    315.6215    
    382.8565    
    431.0224    
    404.5177    
    385.2684    
    253.4246    
    234.3261    
    327.6310    
    255.8167    
    246.2708    
    267.7772    
    236.7296    
    272.5676    
    378.0823    
    236.7365    
    404.5618    
    330.0660    
    255.8512    
    320.4736    
    339.6702    
    320.4839    
    318.0918    
    306.1124    
    337.2814    
    373.3104    
    322.8995    
    433.5229    
    435.9354    
    354.1041    
    414.2420    
    402.2066    
    414.2547    
    421.4882    
    354.1238    
    356.5251    
    325.3315    
    320.5394    
    346.9367    
    270.2667    
    127.3372    
    263.0996    
    310.9690    
    320.5636    
    291.8163    
    263.1157    
    308.5839    
    414.3046    
    366.1878    
    426.3650    
    368.5941    
    397.4576    
    438.4296    
    380.6256    
    318.2049    
    378.2282    
    213.0240    
    217.7949    
    279.9018    
    236.8940    
    256.0008    
    248.8357    
    224.9667    
    301.4566    
    356.6292    
    371.0517    
    421.5984    
    327.8378    
    474.7018    
    484.3780    
    392.7134    
    462.6363    
    313.4699    
    359.0575    
    344.6545    
    246.4951    
    287.1432    
    363.8836    
    306.3028    
    217.8707    
    225.0276    
    289.5511    
    282.3767    
    327.8956    
    220.2755    
    397.5747    
    354.2996    
    407.2165    
    412.0387    
    392.7818    
    383.1588    
    416.8644    
    296.7673    
    363.9369    
    251.3411    
    253.7329    
    301.5731    
    270.4647    
    325.5406    
    368.7619    
    289.6202    
    335.1529    
    349.5556    
    392.8246    
    407.2699    
    359.1708    
    292.0330    
    455.5139    
    392.8432    
    320.7853    
    402.4745    
    289.6537    
    299.2364    
    397.6768    
    311.2172    
    368.8163    
    351.9992    
    364.0167    
    416.9584    
    354.4176    
    284.8981    
    400.1079    
    280.1161    
    318.4381    
    313.6477    
    306.4666    
    349.6389    
    323.2460    
    246.6733    
    373.6693    
    443.5222    
    332.8513    
    361.6688    
    318.4716    
    308.8885    
    380.9036    
    244.3157    
    376.1021    
    330.4819    
    210.9276    
    261.0507    
    342.4812    
    328.0884    
    335.2916    
    352.0986    
    320.9135    
    332.9022    
    256.2954    
    311.3303    
    280.2060    
    316.1305    
    388.1765    
    349.7268    
    349.7279    
    426.7214    
    364.1417    
    371.3561    
    400.2308    
    366.5582    
    328.1532    
    426.7412    
    325.7566    
    323.3603    
    213.3868    
    335.3632    
    301.8061    
    244.4192    
    301.8130    
    359.3837    
    313.7966    
    364.1914    
    361.7961    
    316.2044    
    421.9641    
    373.8268    
    373.8268    
    388.2576    
    335.4025    
    330.6124    
    273.1331    
    232.5298    
    258.8007    
    299.4682    
    172.9712    
    234.9238    
    256.4174    
    318.6483    
    289.9130    
    333.0477    
    273.1665    
    354.6535    
    364.2632    
    383.4983    
    393.1295    
    316.2783    
    359.4763    
    318.6852    
    321.0832    
    388.3318    
    313.8959    
    268.4185    
    316.3002    
    294.7459    
    292.3593    
    292.3616    
    234.9974    
    313.9224    
    354.7056    
    342.7043    
    301.9525    
    340.3151    
    361.9326    
    422.0941    
    352.3276    
    357.1347    
    282.8181    
    237.4159    
    325.9436    
    227.8804    
    249.3706    
    227.8907    
    232.6631    
    194.5234    
    220.7384    
    213.5877    
    294.8220    
    261.3362    
    270.9058    
    316.3925    
    325.9829    
    328.3853    
    337.9806    
    333.1852    
    282.8814    
    364.4067    
    290.0709    
    314.0240    
    318.8203    
    263.7672    
    273.3312    
    333.2107    
    306.8462    
    302.0610    
    259.0009    
    316.4456    
    347.6339    
    350.0355    
    323.6455    
    256.6280    
    285.3222    
    306.8762    
    292.5115    
    201.7668    
    270.9910    
    213.6910    
    223.2310    
    309.2935    
    177.9739    
    251.8807    
    249.4948    
    232.7895    
    225.6353    
    271.0209    
    282.9806    
    292.5576    
    170.8621    
    244.7447    
    342.8974    
    251.9140    
    244.7550    
    268.6511    
    251.9244    
    374.1487    
    347.7252    
    271.0566    
    259.1056    
    273.4487    
    263.8893    
    340.5336    
    311.7630    
    280.6403    
    261.5192    
    247.1897    
    268.6960    
    273.4774    
    235.2583    
    271.0900    
    213.7932    
    263.9250    
    273.4936    
    232.8860    
    220.9670    
    256.7741    
    225.7422    
    237.6746    
    247.2265    
    220.9796    
    218.5942    
    206.6772    
    228.1446    
    235.3054    
    204.3085    
    209.0807    
    209.0841    
    190.0289    
    159.1031    
    199.5593    
    182.8919    
    213.8598    
    144.8539    
    185.2844    
    240.1141    
    237.7298    
    264.0125    
    355.0595    
    319.0708    
    369.4785    
    331.0641    
    290.3326    
    297.5168    
    221.0531    
    204.3727    
    249.7007    
    235.3779    
    173.4340    
    206.7702    
     59.5956    
    187.7184    
    180.5823    
    187.7241    
    168.6902    
    159.1821    
    273.6272    
    271.2455    
    261.6849    
    211.5671    
    261.6953    
    237.8137    
    223.5009    
    202.0479    
    149.7085    
    204.4370    
    128.3407    
    106.9957    
    140.2168    
    144.9706    
    159.2325    
    192.5449    
    156.8651    
    152.1163    
    259.3485    
    233.0814    
    204.4703    
    245.0241    
    271.3100    
    312.0031    
    304.8180    
    261.7540    
    276.1059    
    185.4403    
    175.9250    
    259.3842    
    204.5047    
    190.2169    
    140.2842    
     57.3510    
    149.7909    
    133.1682    
    154.5449    
    154.5483    
    161.6827    
    240.3004    
    230.7611    
    261.8081    
    190.2479    
    195.0189    
    164.0850    
    230.7795    
    211.7048    
    197.4082    
    133.2105    
    137.9604    
    173.6105    
    171.2355    
     71.5987    
     95.2784    
    128.4824    
    135.6059    
    192.6734    
    161.7456    
    226.0490    
    199.8312    
    223.6698    
    204.6022    
    257.0952    
    149.8813    
    245.1587    
    245.1610    
    235.6123    
    228.4572    
    178.4254    
    216.5374    
    149.9031    
    149.9053    
    178.4426    
    173.6849    
    135.6688    
    214.1778    
     26.7751    
    126.1840    
    176.0808    
    171.3249    
    197.5103    
     92.9999    
    159.4432    
    154.6914    
    185.6145    
    185.6180    
    183.2404    
    138.0781    
    190.3924    
    209.4514    
    123.8469    
    133.3477    
    149.9740    
    142.8509    
    166.6183    
    204.7078    
    109.6367    
    126.2434    
    126.2446    
    223.7881    
    195.1909    
    145.2441    
    223.7938    
    131.0029    
    133.3809    
    140.5050    
    190.4474    
    154.7692    
    178.5526    
    157.1513    
    219.0524    
    230.9840    
    138.1593    
    195.2345    
    219.0685    
    200.0044    
    100.2162    
    142.9218    
    107.3325    
    180.9651    
    145.3047    
    180.9686    
    188.1117    
    204.7893    
    209.5559    
    269.2361    
    166.7099    
    211.9528    
    219.1087    
    178.6156    
    178.6202    
    169.1083    
    238.2057    
    178.6328    
     69.4917    
    140.6056    
    123.9921    
     57.6755    
    112.1375    
    102.6576    
    105.0286    
    126.3771    
    112.1467    
    140.6262    
    214.3868    
    204.8570    
    252.5721    
    188.1873    
    233.4779    
    226.3235    
    216.7855    
    185.8198    
    238.2620    
     88.4837    
    214.4178    
    164.4240    
    159.6721    
    112.1935    
    119.3108    
     86.1330    
    131.1836    
    109.8376    
    126.4446    
    183.4823    
    114.5885    
    250.2460    
    264.5858    
    185.8759    
    197.7788    
    259.8123    
    150.2097    
    190.6447    
    131.2178    
    131.2190    
    152.5969    
     57.7894    
     86.1809    
     60.1571    
     57.7940    
     74.3556    
    128.8654    
    114.6330    
    138.3663    
    140.7429    
    193.0622    
    164.5122    
    185.9298    
    188.3123    
    202.6055    
    209.7568    
    174.0424    
    176.4246    
    169.2927    
    138.4018    
     76.7709    
    109.9370    
    119.4297    
    100.4650    
    124.1795    
    169.3157    
    178.8345    
    207.4117    
    150.3082    
    109.9644    
    245.5876    
    119.4559    
    202.6618    
    159.8290    
    100.4981    
    171.7213    
    190.7628    
     81.5546    
    131.3379    
     79.1945    
      5.9591    
     93.4072    
     67.3712    
     86.3075    
     48.4628    
     46.1012    
     62.6526    
     72.1172    
    128.9922    
    157.4970    
    117.1369    
    136.1216    
    202.7146    
     72.1320    
    143.2547    
    219.4073    
    159.8920    
    248.0501    
    171.7854    
    136.1456    
    155.1492    
    186.0720    
    143.2764    
    212.2800    
    140.9076    
    174.1845    
    129.0437    
    131.4179    
    212.2949    
    219.4498    
    159.9320    
    136.1799    
     65.0904    
    107.7172    
    145.6868    
    148.0643    
    124.3269    
    107.7275    
     55.6498    
    145.7051    
    126.7154    
    112.4847    
    169.4818    
     79.3245    
    126.7280    
     93.5372    
     93.5407    
    140.9785    
     81.7062    
     74.6086    
    162.3720    
     74.6154    
    150.4935    
    209.9886    
    160.0076    
    133.8793    
    188.5589    
    131.5117    
    229.0788    
    155.2671    
    195.7140    
    264.9081    
    183.8147    
    145.7760    
    164.7893    
    107.8143    
     95.9687    
    164.7985    
     58.1060    
    148.1684    
    114.9414    
     79.4008    
    119.6890    
    200.5115    
    110.2076    
    186.2313    
    100.7321    
     86.5219    
    212.4419    
    119.7084    
    200.5333    
    138.6980    
     34.5134    
    148.2061    
    143.4583    
     29.8006    
    129.2186    
    124.4766    
    103.1382    
      6.2169    
    124.4846    
    164.8649    
    169.6249    
     91.3069    
    167.2528    
    210.1080    
    160.1255    
    210.1138    
    145.8744    
    186.3036    
    200.5941    
    198.2135    
    207.7469    
    167.2803    
     65.3045    
     77.1391    
    131.6534    
     91.3502    
    122.1672    
    129.2883    
     53.4978    
    162.5494    
    207.7767    
    172.0661    
    229.2420    
    126.9360    
    217.3241    
    136.4360    
    105.5994    
    134.0680    
     89.0209    
     84.2889    
     67.7256    
     79.5593    
     86.6645    
     39.3684    
     41.7337    
    188.7664    
     98.5157    
    134.0932    
    188.7721    
    207.8307    
    210.2159    
    308.1881    
    265.1176    
    236.4607    
    246.0132    
    181.6517    
    188.7951    
    150.7430    
    115.1402    
    131.7506    
     86.7089    
    122.2655    
    134.1332    
     93.8248    
    150.7636    
    179.2987    
    138.8935    
    162.6582    
    165.0390    
    210.2699    
    200.7421    
    134.1618    
    108.0712    
    146.0415    
    112.8182    
    153.1772    
    117.5698    
     34.7431    
     93.8727    
     98.6139    
     91.5099    
    160.3236    
     86.7785    
    112.8422    
    196.0202    
    167.4635    
    179.3606    
    193.6471    
    196.0305    
    258.0538    
    262.8360    
    238.9518    
    260.4476    
    179.3789    
    198.4258    
    224.6462    
    219.8805    
    105.7672    
    117.6292    
     30.0770    
     91.5636    
    117.6384    
     82.0973    
    108.1591    
    110.5319    
    110.5388    
    153.2642    
    184.1827    
    243.7810    
    274.8458    
    150.9009    
    184.1896    
    236.6273    
    110.5582    
    148.5322    
    186.5845    
     96.3452    
    162.7968    
    134.2921    
    139.0422    
    148.5448    
     56.1246    
    143.8015    
    191.3660    
    174.7092    
    217.5790    
    122.4517    
    174.7173    
    215.2043    
    200.9108    
    136.7059    
    169.9754    
    131.9632    
    200.9234    
    200.9223    
    255.7949    
    196.1648    
    150.9719    
    141.4738    
    189.0301    
    153.3534    
    189.0313    
    205.7074    
    110.6381    
    136.7390    
    208.1016    
    184.2893    
    200.9590    
    177.1557    
    129.6346    
    236.7365    
    184.3065    
    215.2744    
    148.6444    
    141.5218    
    153.3981    
    267.8013    
    234.3664    
    227.2117    
    162.9124    
    117.7994    
    155.7879    
    241.5364    
    172.4361    
    193.8616    
    117.8166    
    122.5626    
     70.4454    
    139.1829    
    177.2175    
    158.1964    
    153.4461    
    113.0957    
    101.2434    
    177.2279    
    191.5105    
    153.4564    
    227.2599    
    325.3177    
    272.6436    
    277.4283    
    267.8681    
    177.2496    
    243.9857    
    189.1539    
    198.6828    
    260.7181    
    108.3943    
    146.3652    
    167.7579    
    182.0311    
    143.9948    
    125.0080    
     98.9300    
    220.1527    
    186.8023    
    213.0067    
    224.9311    
    275.0888    
    263.1410    
    296.6301    
    260.7561    
    232.1068    
    239.2702    
    198.7378    
    244.0501    
    155.9150    
     61.0944    
    136.9197    
     65.8263    
     39.8291    
    155.9241    
    113.1985    
    122.6917    
    146.4316    
    167.8266    
    139.3132    
    208.3036    
    215.4546    
    198.7791    
    189.2525    
    163.0876    
    244.0938    
    151.2099    
    270.3760    
    225.0069    
    129.8438    
    222.6313    
    208.3300    
    151.2248    
    198.8055    
    170.2504    
    125.1200    
    236.9653    
    191.6710    
    227.4231    
    208.3518    
    148.8721    
    268.0224    
    260.8562    
    160.7587    
    213.1319    
    210.7520    
    234.6020    
    220.2951    
    182.1835    
    179.8075    
    160.7793    
    186.9502    
    151.2797    
    122.7934    
    122.7911    
    177.4376    
    108.5690    
    125.1760    
    206.0207    
     96.7309    
    110.9579    
    146.5551    
    113.3321    
    125.1908    
    189.3638    
    158.4426    
    203.6555    
    144.1916    
    227.5012    
    323.1640    
    210.8186    
    198.9088    
    311.1895    
    287.2504    
    375.9967    
    292.0388    
    246.6181    
    332.7786    
    260.9517    
    172.7443    
    263.3482    
    208.4643    
     80.2160    
    132.3656    
     32.9439    
     96.8028    
    130.0027    
    106.2844    
    108.6581    
    163.2640    
    149.0025    
    227.5621    
    251.4343    
    194.2045    
    265.7796    
    215.6533    
    191.8339    
    222.8151    
    203.7450    
    213.2800    
    225.2034    
     96.8393    
    201.3698    
     99.2153    
     80.2753    
    149.0460    
     99.2267    
    113.4532    
    189.4853    
     68.4570    
    199.0120    
    179.9703    
    153.8147    
    265.8256    
    191.8763    
    227.6299    
    263.4472    
    170.4737    
    187.1314    
    165.7238    
    127.7178    
    206.1894    
    125.3497    
    144.3403    
    270.6351    
    160.9819    
    189.5289    
    175.2535    
     73.2409    
    175.2627    
    194.3031    
    137.2411    
    123.0048    
    151.4926    
    123.0059    
    175.2741    
    146.7531    
    163.3899    
    218.1543    
    168.1530    
    187.1864    
    161.0231    
    187.1921    
    189.5702    
    194.3364    
    142.0273    
    249.1934    
    151.5338    
    194.3525    
    187.2139    
     85.1305    
    111.1965    
    170.5631    
     85.1374    
    104.0902    
     96.9865    
     59.1207    
    120.7013    
    125.4480    
     89.8946    
    189.6195    
     68.5949    
    130.1982    
    222.9828    
    222.9886    
    189.6310    
    184.8751    
    142.0868    
    206.3168    
    189.6424    
    175.3669    
    225.3872    
     92.2903    
    120.7378    
    153.9795    
     87.5655    
    101.7833    
    130.2439    
     54.4497    
    118.3843    
    182.5274    
     94.6827    
    196.8174    
    146.8755    
    182.5412    
    237.3607    
    237.3631    
    137.3886    
    146.8881    
    175.4128    
    144.5153    
    180.1777    
     87.6077    
    151.6539    
     35.5951    
     68.6872    
    106.5721    
     75.7860    
     33.2373    
    118.4323    
     49.7809    
    156.4255    
    137.4309    
    118.4494    
    170.7029    
    118.4506    
    111.3393    
    223.0977    
    184.9806    
    201.6532    
    111.3507    
     40.3604    
    139.8290    
    139.8279    
     64.0002    
    142.2047    
    135.0856    
     97.1474    
    158.8456    
    118.4894    
    158.8559    
    173.1201    
    137.4789    
    185.0196    
    187.4019    
    156.4874    
    146.9865    
     73.4973    
    101.9180    
    149.3733    
    175.5228    
    128.0081    
     68.7749    
     73.5087    
    158.8868    
    137.5132    
     64.0605    
    132.7715    
    101.9408    
    118.5386    
    106.6828    
     59.3382    
    101.9511    
     83.0049    
      2.6909    
     59.3553    
    154.1672    
     54.6239    
    137.5418    
     99.5987    
    109.0817    
    206.5303    
    182.7200    
    149.4305    
    239.9233    
    130.4371    
    206.5372    
    213.6910    
    106.7319    
    201.7851    
    137.5795    
     14.5207    
     92.5253    
     92.5241    
     47.5785    
     57.0378    
      0.0001    
     68.8718    
    118.6151    
     68.8741    
    142.3465    
     73.6068    
     75.9787    
    109.1399    
     87.8221    
     92.5618    
    123.3750    
     28.7204    
     23.9989    
     80.7256    
      0.4223    
     52.3514    
    113.9078    
     38.1807    
     78.3759    
    121.0246    
     87.8449    
    140.0178    
     21.6675    
    116.2973    
    149.5289    
    180.4368    
    199.4836    
    182.8174    
    130.5400    
    232.8665    
    185.2099    
    125.8057    
    216.1780    
     64.2178    
     76.0459    
    121.0680    
    113.9546    
     97.3688    
     38.2364    
      0.0001    
     33.5171    
     26.4328    
     16.9966    
     71.3388    
     28.8046    
      9.9344    
    211.4477    
     64.2531    
    163.8423    
     57.1642    
     76.0904    
    109.2541    
     35.9113    
     59.5387    
     97.4088    
     31.1891    
      9.9594    
     31.1971    
      0.0001    
     61.9225    
     92.6873    
      0.0001    
    137.7454    
    118.7659    
    104.5445    
    190.0587    
    123.5201    
    149.6330    
    213.8839    
    130.6394    
     95.0810    
     64.3123    
      7.6434    
     59.5888    
     31.2403    
     14.7184    
      0.0001    
      0.0001    
      0.0001    
     52.5153    
     19.4547    
     40.7029    
    128.3007    
     69.0735    
     61.9817    
    202.0157    
     78.5470    
     52.5313    
    116.4526    
    133.0630    
    111.7196    
     38.3672    
     47.8209    
     54.9085    
      0.0001    
     97.5069    
     71.4710    
      0.0001    
      0.6358    
     12.4223    
     73.8472    
    121.2291    
     66.7526    
    137.8483    
     69.1293    
      0.0001    
    102.2787    
    104.6462    
     64.4012    
     26.6045    
     17.1693    
     28.9729    
    164.0049    
     28.9740    
     40.7814    
     90.4536    
      0.0001    
     97.5685    
    102.3072    
     62.0671    
    102.3083    
     76.2648    
     24.2774    
     83.3744    
     57.3544    
     38.4491    
     71.5417    
      0.0001    
     14.8536    
      0.0001    
      0.0001    
     55.0030    
      0.0001    
     92.8641    
    149.7989    
     90.5072    
     14.8775    
    111.8349    
     19.5933    
     57.3840    
      0.0001    
      0.0001    
      5.4583    
      0.0001    
      0.0001    
     36.1342    
      0.0001    
      0.0001    
      3.1156    
     24.3433    
     36.1456    
    130.8406    
    118.9864    
    133.2254    
     95.2909    
     85.8171    
     81.0802    
     69.2535    
    107.1452    
     95.3023    
      7.8604    
     52.7146    
     88.1985    
      0.7891    
     43.2699    
      0.0001    
     47.9985    
     57.4546    
     52.7282    
     55.0964    
    111.9160    
     14.9615    
    133.2700    
    102.4408    
     52.7430    
    138.0244    
    121.4176    
     22.0540    
     69.3059    
     22.0517    
     69.3093    
      0.0001    
      0.0001    
     17.3500    
     33.8708    
      0.0001    
     40.9566    
      0.0001    
      0.0001    
     93.0033    
     19.7229    
      5.5707    
     55.1511    
     22.0892    
     64.6165    
    107.2343    
    123.8321    
    123.8355    
     57.5298    
     38.6323    
    140.4615    
     69.3629    
     43.3575    
     43.3643    
      0.0001    
      7.9683    
     50.4582    
     15.0467    
    130.9801    
      0.0001    
      0.0001    
     69.3902    
     43.3848    
     62.2927    
     24.4991    
     26.8637    
     43.3984    
     57.5753    
     31.5871    
    112.0313    
      0.0001    
      0.0001    
     10.3684    
      0.0001    
     41.0477    
     31.6065    
      0.0001    
      0.0001    
     45.7848    
     15.0945    
     38.7006    
      0.0001    
      0.0001    
     55.2490    
    100.2185    
     36.3504    
     67.0795    
     29.2776    
     67.0887    
     48.1737    
     45.8098    
     71.8220    
     59.9999    
     76.5634    
    102.6120    
    123.9486    
     67.1023    
     43.4679    
     29.3037    
    104.9932    
     67.1092    
     64.7475    
     55.2934    
      0.0001    
     36.3981    
     57.6664    
     29.3162    
      0.0001    
     15.1695    
      0.0001    
      0.0001    
     15.1717    
     19.8945    
     31.7008    
     36.4266    
      3.3927    
     36.4243    
     38.7916    
      0.0001    
     55.3389    
      0.0001    
      0.0001    
     31.7190    
      0.0001    
      0.0001    
      0.0001    
      0.0001    
      0.0001    
      0.0001    
      3.4279    
     79.0155    
    102.6953    
    124.0366    
    138.2828    
    140.6617    
    150.1605    
     88.4939    
    114.5611    
    121.6839    
     67.2083    
      1.0956    
      0.0001    
      0.0001    
      0.0001    
      0.0001    
      0.0001    
      0.0001    
      0.0001    
     22.3382    
    100.3748    
     90.8973    
     62.5011    
     64.8671    
     27.0718    
      1.1297    
     53.0561    
     71.9713    
     12.9199    
      0.0001    
      3.4983    
      0.0001    
      0.0001    
      0.0001    
      0.0001    
      0.0001    
      0.0001    
      0.0001    
      0.0001    
     69.6386    
    105.1610    
     93.3136    
     98.0501    
     64.9172    
    112.2814    
     81.4873    
     69.6557    
     88.5874    
     38.9315    
     12.9755    
     15.3331    
      0.0001    
      3.5437    
     55.4824    
     83.8750    
     38.9463    
     48.3957    
     29.5039    
     15.3524    
     64.9571    
      0.0001    
     81.5169    
      1.2137    
     17.7250    
     98.1083    
      0.0001    
      5.9341    
     67.3382    
     62.6139    
      0.0001    
